baseline,,a264e,,1jme,,k97c,,
Wavelength (nm),Abs,Wavelength (nm),Abs,Wavelength (nm),Abs,Wavelength (nm),Abs,
800.0085449,0.001012751833,800.0085449,0.125538528,800.0085449,0.007140338421,800.0085449,0.01584948227,
799.0036011,0.000570953649,799.0036011,0.1259619892,799.0036011,0.008140858263,799.0036011,0.01599507779,
797.9984131,0.0005195832346,797.9984131,0.1251581609,797.9984131,0.006351839285,797.9984131,0.01567613147,
796.9927979,-3.696358908E-005,796.9927979,0.1256165057,796.9927979,0.007059190422,796.9927979,0.01566389389,
795.9866333,0.001309290645,795.9866333,0.1273635924,795.9866333,0.007955291308,795.9866333,0.01846493967,
795.0148926,-0.0002153696114,795.0148926,0.1260148138,795.0148926,0.008305579424,795.0148926,0.01618397795,
794.0080566,0.000726034923,794.0080566,0.1252405643,794.0080566,0.005509422161,794.0080566,0.01567758061,
793.0007935,0.001603382058,793.0007935,0.1267020702,793.0007935,0.006832087878,793.0007935,0.01569854096,
791.993103,0.002313783159,791.993103,0.1270847023,791.993103,0.009099091403,791.993103,0.01774201728,
790.9850464,0.0005450603203,790.9850464,0.1259040385,790.9850464,0.005760726985,790.9850464,0.01448061597,
790.0113525,0.001453883015,790.0113525,0.1259264946,790.0113525,0.00779802911,790.0113525,0.01738427952,
789.0025024,0.0005740381312,789.0025024,0.1268586069,789.0025024,0.00649136724,789.0025024,0.01607533358,
787.9932251,0.00194145774,787.9932251,0.1265473366,787.9932251,0.008166469634,787.9932251,0.01709279791,
786.9835815,0.001005979837,786.9835815,0.1253333837,786.9835815,0.006896203384,786.9835815,0.01618099585,
786.0083618,0.0009320919053,786.0083618,0.1247686818,786.0083618,0.007179523353,786.0083618,0.01536495611,
784.9979248,-0.001255981275,784.9979248,0.1257314682,784.9979248,0.006307107862,784.9979248,0.01507091429,
783.9870605,0.0002257066226,783.9870605,0.127225399,783.9870605,0.007528975606,783.9870605,0.01620071754,
783.0106812,0.00145764905,783.0106812,0.126057446,783.0106812,0.007471455727,783.0106812,0.01627789438,
781.9990845,-0.0003447160125,781.9990845,0.1261135489,781.9990845,0.006505372468,781.9990845,0.01569711976,
780.9869995,0.002526895842,780.9869995,0.1269035041,780.9869995,0.007602097932,780.9869995,0.01726415567,
780.0095825,0.00105745974,780.0095825,0.1274157614,780.0095825,0.007512408774,780.0095825,0.01608825475,
778.9967651,0.0008859961526,778.9967651,0.12675336,778.9967651,0.006320476998,778.9967651,0.01668286882,
777.9835815,4.980745871E-005,777.9835815,0.1263724267,777.9835815,0.005819201469,777.9835815,0.01638110541,
777.0048828,0.001161554013,777.0048828,0.1263704896,777.0048828,0.007429427002,777.0048828,0.01706277765,
775.9909668,-0.0003657699854,775.9909668,0.1247387379,775.9909668,0.007011282258,775.9909668,0.01579643413,
775.0115967,0.0002525133605,775.0115967,0.126320973,775.0115967,0.006852651946,775.0115967,0.01580502465,
773.9967651,9.809301264E-005,773.9967651,0.1267404407,773.9967651,0.006361268926,773.9967651,0.01524651702,
773.0167236,0.0005522138672,773.0167236,0.1269852221,773.0167236,0.008223738521,773.0167236,0.0159888193,
772.0011597,-0.0003010012442,772.0011597,0.1254261434,772.0011597,0.007222765125,772.0011597,0.01621665247,
770.9852905,0.0002568647615,770.9852905,0.1259075999,770.9852905,0.006451797672,770.9852905,0.01560034975,
770.0040283,-0.0003818571859,770.0040283,0.1264818907,770.0040283,0.008016224019,770.0040283,0.01582032628,
768.9873657,-0.001165839145,768.9873657,0.1247773096,768.9873657,0.005923892371,768.9873657,0.01561905257,
768.0054321,0.0006038992433,768.0054321,0.1265317798,768.0054321,0.007081396878,768.0054321,0.01522346027,
766.9879761,0.0007554137846,766.9879761,0.1277072281,766.9879761,0.006976294797,766.9879761,0.01566644385,
766.0053101,0.0007780262385,766.0053101,0.1265795231,766.0053101,0.006750366185,766.0053101,0.01583772339,
764.9869995,0.00114930328,764.9869995,0.1257189512,764.9869995,0.007818560116,764.9869995,0.01644298993,
764.0036011,-0.000948460889,764.0036011,0.1251309216,764.0036011,0.006997997407,764.0036011,0.01538474858,
762.9846191,0.00126512791,762.9846191,0.1261017472,762.9846191,0.007643800694,762.9846191,0.0165574532,
762.0004272,-0.0004635255609,762.0004272,0.1247045174,762.0004272,0.006928553805,762.0004272,0.01469643787,
761.0158691,0.0005361185176,761.0158691,0.1266608685,761.0158691,0.006968377158,761.0158691,0.01521367487,
759.9957886,0.001935737324,759.9957886,0.1276191175,759.9957886,0.008716283366,759.9957886,0.0175059177,
759.010498,0.0007272536168,759.010498,0.1279211044,759.010498,0.007155127823,759.010498,0.0166679658,
757.989624,0.0006400878774,757.989624,0.12823838,757.989624,0.007664350793,757.989624,0.01623484306,
757.0036621,0.0006131016416,757.0036621,0.1269282252,757.0036621,0.008187967353,757.0036621,0.01581342705,
756.0172729,0.0008817422204,756.0172729,0.1268766969,756.0172729,0.008245793171,756.0172729,0.01656388119,
754.9952393,-0.0002132997615,754.9952393,0.1258399487,754.9952393,0.007527790498,754.9952393,0.01541344635,
754.0081177,0.000961873855,754.0081177,0.1270955205,754.0081177,0.007457945962,754.0081177,0.01512944978,
752.9854126,0.001313185319,752.9854126,0.1282223463,752.9854126,0.00791719649,752.9854126,0.01576757617,
751.9976196,0.001227822853,751.9976196,0.1280308366,751.9976196,0.007192971651,751.9976196,0.01601653732,
751.0093994,3.911546082E-005,751.0093994,0.1272150278,751.0093994,0.007129970472,751.0093994,0.01437558141,
749.9855347,0.0006591425044,749.9855347,0.1275523007,749.9855347,0.008336320519,749.9855347,0.01572253555,
748.9967041,0.0006423173472,748.9967041,0.1274235994,748.9967041,0.00779542001,748.9967041,0.01541379467,
748.0074463,0.001367168617,748.0074463,0.1268865168,748.0074463,0.007851296104,748.0074463,0.01693892106,
746.9824219,-6.72465394E-005,746.9824219,0.1250811666,746.9824219,0.006737509742,746.9824219,0.01467482932,
745.9924927,0.0008001989918,745.9924927,0.1280591339,745.9924927,0.007327242289,745.9924927,0.01636672392,
745.0021362,0.0004866180825,745.0021362,0.1280152947,745.0021362,0.007467637304,745.0021362,0.01640548743,
744.0114746,-0.0001955503394,744.0114746,0.1272925436,744.0114746,0.006439186633,744.0114746,0.01565090567,
742.9850464,3.378250403E-005,742.9850464,0.1271061003,742.9850464,0.006684668828,742.9850464,0.0156853646,
741.9935913,-8.50012002E-005,741.9935913,0.1288347095,741.9935913,0.007773756981,741.9935913,0.0168236047,
741.0018921,0.0001187033849,741.0018921,0.1272433102,741.0018921,0.006568309851,741.0018921,0.01510071661,
740.0097656,-5.316652459E-005,740.0097656,0.1269347817,740.0097656,0.006698759273,740.0097656,0.01505274419,
739.017334,0.002000486245,739.017334,0.1275534779,739.017334,0.007433666382,739.017334,0.01604452357,
737.9890747,-0.0005499873077,737.9890747,0.127598241,737.9890747,0.006958723534,737.9890747,0.01525769662,
736.9959106,-0.0003989782999,736.9959106,0.1274196804,736.9959106,0.00671011582,736.9959106,0.01529300958,
736.0024414,0.0001061972216,736.0024414,0.1279473901,736.0024414,0.007953709923,736.0024414,0.01634788141,
735.0085449,-0.0005924361758,735.0085449,0.1272731125,735.0085449,0.006809394341,735.0085449,0.01595277898,
734.0143433,-0.0006908127107,734.0143433,0.1281131655,734.0143433,0.00665693637,734.0143433,0.01517450903,
732.9842529,-0.0002818067442,732.9842529,0.1269030869,732.9842529,0.008104645647,732.9842529,0.01561290771,
731.9893799,-0.0001275990799,731.9893799,0.1276977062,731.9893799,0.00760573335,731.9893799,0.0160814058,
730.9941406,0.0003049142833,730.9941406,0.1271109134,730.9941406,0.006940021645,730.9941406,0.01536358893,
729.9984741,1.426340259E-005,729.9984741,0.1274782121,729.9984741,0.006934077013,729.9984741,0.01536425948,
729.0025024,3.616420508E-005,729.0025024,0.1261407435,729.0025024,0.008156182244,729.0025024,0.01521732099,
728.0062866,0.0002931021736,728.0062866,0.1281550527,728.0062866,0.006762776058,728.0062866,0.01593006216,
727.0096436,0.0001772256073,727.0096436,0.1269023269,727.0096436,0.008196646348,727.0096436,0.01612973399,
726.0126343,-6.657360791E-005,726.0126343,0.128144592,726.0126343,0.008099608123,726.0126343,0.0155237224,
725.0152588,0.0006382472347,725.0152588,0.1285175532,725.0152588,0.008137007244,725.0152588,0.01595981605,
724.0177002,0.0005662880722,724.0177002,0.1270729303,724.0177002,0.007247138303,724.0177002,0.01670301706,
722.9840088,0.000263469643,722.9840088,0.128272742,722.9840088,0.008001827635,722.9840088,0.01633108221,
721.9855957,-0.0001701927686,721.9855957,0.1287417263,721.9855957,0.007632525172,721.9855957,0.01603805088,
720.9869385,0.0001937997004,720.9869385,0.1282598674,720.9869385,0.007286622189,720.9869385,0.01555591729,
719.987854,-0.0007908723783,719.987854,0.1288611442,719.987854,0.007200262044,719.987854,0.01569693163,
718.9885254,0.0007239346742,718.9885254,0.1291209608,718.9885254,0.008546944708,718.9885254,0.01708474755,
717.9887695,0.0004289869685,717.9887695,0.1286136955,717.9887695,0.007944956422,717.9887695,0.01631702483,
716.9887085,0.0001960528025,716.9887085,0.1274957806,716.9887085,0.008703791536,716.9887085,0.01617169939,
715.9882813,0.0003868568456,715.9882813,0.1275431663,715.9882813,0.008350860327,715.9882813,0.01663552783,
714.9875488,0.0008536516689,714.9875488,0.1277701706,714.9875488,0.009042657912,714.9875488,0.01680576429,
713.9865112,-0.0007577456417,713.9865112,0.1274737716,713.9865112,0.00738913985,713.9865112,0.01652335562,
712.9850464,0.000151873639,712.9850464,0.1271803975,712.9850464,0.00818197988,712.9850464,0.01619897038,
711.9833374,0.0004329773656,711.9833374,0.1286088228,711.9833374,0.008699038066,711.9833374,0.01642298885,
711.0170288,0.0004546401615,711.0170288,0.1273523718,711.0170288,0.00853324309,711.0170288,0.01696648449,
710.0146484,-0.0001510959992,710.0146484,0.1278167665,710.0146484,0.00788830407,710.0146484,0.01677697338,
709.0119019,-4.664401058E-005,709.0119019,0.1269093901,709.0119019,0.008691775613,709.0119019,0.01618279517,
708.0087891,-0.0001633615029,708.0087891,0.1288051009,708.0087891,0.008246980608,708.0087891,0.01670116186,
707.0053711,0.0007267090841,707.0053711,0.1289551854,707.0053711,0.009074085392,707.0053711,0.01751680672,
706.0015869,0.0009491618257,706.0015869,0.1276965588,706.0015869,0.009106016718,706.0015869,0.01709263586,
704.9974976,0.0008031035541,704.9974976,0.1289388537,704.9974976,0.008086922579,704.9974976,0.01769957505,
703.993103,-0.0003194706223,703.993103,0.1280934811,703.993103,0.008249249309,703.993103,0.01743070409,
702.9883423,-0.0003565105144,702.9883423,0.1282229424,702.9883423,0.008090904914,702.9883423,0.01550663356,
701.9832764,0.000399060169,701.9832764,0.1262134761,701.9832764,0.007678631227,701.9832764,0.01652117819,
701.0137329,0.000347166002,701.0137329,0.1275794506,701.0137329,0.008054934442,701.0137329,0.01663076691,
700.0079956,0.0002965473395,700.0079956,0.1274528652,700.0079956,0.008552831598,700.0079956,0.01643228903,
699.0019531,-0.0001316878333,699.0019531,0.1276525855,699.0019531,0.008451781236,699.0019531,0.0171541106,
697.9956055,0.0004300234432,697.9956055,0.1288452893,697.9956055,0.008374636993,697.9956055,0.01703520864,
696.9887695,0.0003049401857,696.9887695,0.1272433698,696.9887695,0.008278666995,696.9887695,0.01717126556,
696.0177612,0.0006506650243,696.0177612,0.1301602125,696.0177612,0.009541161358,696.0177612,0.0179294385,
695.0103149,0.0003607413091,695.0103149,0.1285955608,695.0103149,0.008052429184,695.0103149,0.01627883501,
694.0026855,0.0006661164807,694.0026855,0.1285678446,694.0026855,0.009231863543,694.0026855,0.01732482016,
692.9946289,-0.000710454362,692.9946289,0.1285088658,692.9946289,0.007815871388,692.9946289,0.01642645523,
691.9862671,0.000301520864,691.9862671,0.1280664057,691.9862671,0.008853113279,691.9862671,0.0162350852,
691.0135498,-3.163150177E-005,691.0135498,0.1264473647,691.0135498,0.007964492775,691.0135498,0.0167065952,
690.0046387,0.0003672441526,690.0046387,0.1292517334,690.0046387,0.009549919516,690.0046387,0.01696713082,
688.9952393,0.001064985059,688.9952393,0.1290130466,688.9952393,0.009595171548,688.9952393,0.01773603074,
687.9856567,0.0004632952332,687.9856567,0.1276879907,687.9856567,0.008429451846,687.9856567,0.01559525169,
687.0116577,0.0007952197338,687.0116577,0.129536137,687.0116577,0.008687550202,687.0116577,0.01658367366,
686.0014038,-7.206056034E-005,686.0014038,0.1289058328,686.0014038,0.007917064242,686.0014038,0.01656218618,
684.9907837,0.000983978156,684.9907837,0.128816843,684.9907837,0.008938455023,684.9907837,0.01683404483,
684.0159302,6.471540473E-006,684.0159302,0.1283265203,684.0159302,0.008347561583,684.0159302,0.0173016265,
683.0046997,-0.0001250629866,683.0046997,0.1291215569,683.0046997,0.008457773365,683.0046997,0.01617494971,
681.993103,0.0002496124653,681.993103,0.1273179203,681.993103,0.009200477973,681.993103,0.01590661891,
681.017395,0.0001779507147,681.017395,0.1273414046,681.017395,0.008393426426,681.017395,0.01671472006,
680.005127,-0.0005984334857,680.005127,0.1277884096,680.005127,0.008181267418,680.005127,0.01608363539,
678.9926758,-0.000414960843,678.9926758,0.1291631311,678.9926758,0.008095520549,678.9926758,0.01614706218,
678.0159302,0.0007178413216,678.0159302,0.1284762472,678.0159302,0.008394825272,678.0159302,0.01687443629,
677.0028076,0.001052503474,677.0028076,0.1304600686,677.0028076,0.008902651258,677.0028076,0.01760464907,
675.9893188,7.005307998E-005,675.9893188,0.1288251579,675.9893188,0.008487521671,675.9893188,0.01684841327,
675.0117188,0.0008960865089,675.0117188,0.1286867857,675.0117188,0.009466997348,675.0117188,0.01677183434,
673.9976196,0.001452688244,673.9976196,0.1302694529,673.9976196,0.008998468518,673.9976196,0.01763201132,
672.9832153,-4.933585296E-005,672.9832153,0.1301317066,672.9832153,0.007738497574,672.9832153,0.01788781583,
672.0046997,-0.0001554433111,672.0046997,0.1296327412,672.0046997,0.008315395564,672.0046997,0.0163001474,
670.989624,0.0006311959587,670.989624,0.1268368065,670.989624,0.008584777825,670.989624,0.01807951182,
670.0105591,0.0002273123973,670.0105591,0.1276635975,670.0105591,0.008969874121,670.0105591,0.01691709459,
668.994873,0.0002151915833,668.994873,0.1308694929,668.994873,0.009580378421,668.994873,0.01736345328,
668.0151367,-0.0004308910866,668.0151367,0.1295797825,668.0151367,0.007260141429,668.0151367,0.01670686342,
666.9988403,0.001602784498,666.9988403,0.131773144,666.9988403,0.009889103472,666.9988403,0.01769108139,
665.9822998,0.0009755981155,665.9822998,0.1304044873,665.9822998,0.009884627536,665.9822998,0.01688977703,
665.0016479,-0.000261369627,665.0016479,0.1300501078,665.0016479,0.008052059449,665.0016479,0.01635755785,
663.984436,0.00176002807,663.984436,0.1324909031,663.984436,0.01022142265,663.984436,0.01750942133,
663.0032349,1.320186357E-006,663.0032349,0.1304604113,663.0032349,0.008338563144,663.0032349,0.01698524505,
661.9853516,0.0002556733089,661.9853516,0.1279316694,661.9853516,0.007730934769,661.9853516,0.01725987345,
661.0036011,0.0001081391529,661.0036011,0.1282436252,661.0036011,0.008074554615,661.0036011,0.01543487702,
659.9850464,-0.0001283754245,659.9850464,0.1288439631,659.9850464,0.008133498952,659.9850464,0.01707895845,
659.0027466,0.0002060494007,659.0027466,0.1284956336,659.0027466,0.008693729527,659.0027466,0.01701361872,
657.9836426,-0.0002007251751,657.9836426,0.1300283223,657.9836426,0.008523422293,657.9836426,0.01647579111,
657.0007324,0.000229695157,657.0007324,0.1316524148,657.0007324,0.008918927982,657.0007324,0.01709215157,
656.0174561,-0.0006946894573,656.0174561,0.1299871802,656.0174561,0.008132760413,656.0174561,0.01744072884,
654.9974365,0.000547652191,654.9974365,0.1312223226,654.9974365,0.00892183464,654.9974365,0.017502442,
654.0136108,1.423751564E-005,654.0136108,0.1307631284,654.0136108,0.008568778634,654.0136108,0.01727172546,
652.993042,0.001421703957,652.993042,0.1325034052,652.993042,0.009981403127,652.993042,0.0172159709,
652.0085449,0.0003580987686,652.0085449,0.1306211054,652.0085449,0.00970262941,652.0085449,0.01716779172,
650.9873657,0.001325933961,650.9873657,0.13037467,650.9873657,0.009421838447,650.9873657,0.01725626364,
650.0023804,0.0003619848867,650.0023804,0.1306004375,650.0023804,0.008996328339,650.0023804,0.0180146955,
649.0170898,0.0005264771753,649.0170898,0.1313209385,649.0170898,0.008986232802,649.0170898,0.01771960966,
647.9949951,0.001109880046,647.9949951,0.1317794174,647.9949951,0.008955683559,647.9949951,0.01771623828,
647.0090942,6.081039828E-005,647.0090942,0.131981045,647.0090942,0.009407845326,647.0090942,0.01676505432,
645.9864502,0.0001356377616,645.9864502,0.1299086958,645.9864502,0.00951472763,645.9864502,0.0172849521,
644.9998779,0.00106231228,644.9998779,0.1315046847,644.9998779,0.00873255264,644.9998779,0.01708143577,
644.0131836,0.0008725341177,644.0131836,0.1303345561,644.0131836,0.008686704561,644.0131836,0.01624000259,
642.989624,-0.0003005873587,642.989624,0.1306715906,642.989624,0.009217743762,642.989624,0.01721955277,
642.0022583,0.0006165493978,642.0022583,0.1321269274,642.0022583,0.00992755685,642.0022583,0.01766018383,
641.0147095,-0.0001271850197,641.0147095,0.13089104,641.0147095,0.008110473864,641.0147095,0.01724492386,
639.9902344,0.0008782924269,639.9902344,0.130240202,639.9902344,0.00948527921,639.9902344,0.01716302522,
639.0020142,0.0009119357564,639.0020142,0.1301000267,639.0020142,0.00984233804,639.0020142,0.01747134142,
638.0136108,0.0007003656938,638.0136108,0.1320895255,638.0136108,0.009488031268,638.0136108,0.01712077484,
636.9881592,0.0003788769245,636.9881592,0.1316597313,636.9881592,0.008812957443,636.9881592,0.01750890911,
635.9991455,0.0004317595158,635.9991455,0.1290948242,635.9991455,0.008832400665,635.9991455,0.01707031578,
635.0098877,-0.0001690024801,635.0098877,0.1310173422,635.0098877,0.009823829867,635.0098877,0.01778176613,
633.9835815,-0.0003355595691,633.9835815,0.1307288855,633.9835815,0.009706600569,633.9835815,0.0176748503,
632.9937744,-0.0001205083463,632.9937744,0.1307942271,632.9937744,0.008885953575,632.9937744,0.01724010333,
632.0036011,-1.242508733E-005,632.0036011,0.1314002424,632.0036011,0.009486072697,632.0036011,0.0170018822,
631.0131226,0.0008666462381,631.0131226,0.1346051395,631.0131226,0.009020087309,631.0131226,0.01850213483,
629.9857788,-0.0004767131177,629.9857788,0.1330456287,629.9857788,0.009156139567,629.9857788,0.01793413423,
628.994751,2.847465794E-006,628.994751,0.1320489645,628.994751,0.009421071969,628.994751,0.01794605702,
628.003418,0.0002027862356,628.003418,0.1311435401,628.003418,0.009304691106,628.003418,0.01814107224,
627.0119019,0.0006619165652,627.0119019,0.1335519403,627.0119019,0.01015882846,627.0119019,0.01897322014,
625.9833984,0.0003705862619,625.9833984,0.1324756593,625.9833984,0.009321379475,625.9833984,0.01806294173,
624.9912109,-0.0002920508268,624.9912109,0.1324045509,624.9912109,0.00914093852,624.9912109,0.01798620261,
623.9988403,0.00020941619,623.9988403,0.1320208609,623.9988403,0.009071045555,623.9988403,0.01815238036,
623.0061646,-0.0003504063934,623.0061646,0.1301178038,623.0061646,0.008668271825,623.0061646,0.01719711907,
622.0132446,0.0004429276159,622.0132446,0.1308884472,622.0132446,0.008959648199,622.0132446,0.01670600288,
620.9832153,0.0006643535453,620.9832153,0.1320158094,620.9832153,0.008924978785,620.9832153,0.01824559085,
619.9897461,0.00057626731,619.9897461,0.1338395625,619.9897461,0.009813820943,619.9897461,0.01801453345,
618.9959717,-0.0001234585216,618.9959717,0.1316436827,618.9959717,0.00954092294,618.9959717,0.01763481461,
618.0018921,-0.0004091679002,618.0018921,0.1323268563,618.0018921,0.009432658553,618.0018921,0.01844141446,
617.0076294,0.0004442232312,617.0076294,0.1335442662,617.0076294,0.009053917602,617.0076294,0.01779060997,
616.0130615,0.0005065990263,616.0130615,0.1322369576,616.0130615,0.01037577353,616.0130615,0.01835834235,
615.0182495,0.0005509697949,615.0182495,0.1319968998,615.0182495,0.009749723598,615.0182495,0.01775509492,
613.9862061,0.0007027251413,613.9862061,0.1324538141,613.9862061,0.009052966721,613.9862061,0.017253194,
612.9907837,0.00087834429,612.9907837,0.1341798753,612.9907837,0.00877402164,612.9907837,0.01917313226,
611.9951782,8.299834735E-005,611.9951782,0.1323529631,611.9951782,0.009738525376,611.9951782,0.01783616282,
610.9992065,7.067444676E-005,610.9992065,0.1326971352,610.9992065,0.00921160914,610.9992065,0.01838116162,
610.0030518,2.246960139E-005,610.0030518,0.1318303347,610.0030518,0.009751841426,610.0030518,0.01768501475,
609.0065308,0.00122307241,609.0065308,0.1345967799,609.0065308,0.01021514181,609.0065308,0.01874461211,
608.0097656,0.0005747639225,608.0097656,0.1333099753,608.0097656,0.01021023933,608.0097656,0.01860287599,
607.0128174,9.868852067E-005,607.0128174,0.1325708032,607.0128174,0.009572306648,607.0128174,0.01869342476,
606.0154419,0.0002523838484,606.0154419,0.1326041073,606.0154419,0.009745567106,606.0154419,0.01717603207,
605.0179443,0.0006823203294,605.0179443,0.1333975196,605.0179443,0.01033147518,605.0179443,0.01847536489,
603.9832153,0.0004977876088,603.9832153,0.1347839683,603.9832153,0.01047340129,603.9832153,0.01834683865,
602.9850464,0.001126048621,602.9850464,0.1362671554,602.9850464,0.01046210527,602.9850464,0.01842672192,
601.9867554,0.0005245592911,601.9867554,0.135023579,601.9867554,0.01051938627,601.9867554,0.01852236688,
600.9880981,0.0006275926135,600.9880981,0.1366268843,600.9880981,0.01086402591,600.9880981,0.01902974024,
599.9892578,0.0005725866067,599.9892578,0.1358039826,599.9892578,0.01045849919,599.9892578,0.01831613854,
598.9900513,0.0008872931357,598.9900513,0.1355766356,598.9900513,0.01019590162,598.9900513,0.01883389428,
597.9907227,0.0001675663079,597.9907227,0.1377810538,597.9907227,0.01031453628,597.9907227,0.01819599979,
596.9910278,0.001037635142,596.9910278,0.1383562535,596.9910278,0.01212509815,596.9910278,0.02011193149,
595.9910889,0.0008612512029,595.9910889,0.1374089718,595.9910889,0.01131690387,595.9910889,0.01961867511,
594.9909058,0.0007917187759,594.9909058,0.140457496,594.9909058,0.01196150295,594.9909058,0.02021597698,
593.9904175,0.0002292807621,593.9904175,0.1400743127,593.9904175,0.01087432355,593.9904175,0.02081820183,
592.9896851,0.0004538627691,592.9896851,0.1405365616,592.9896851,0.01148708723,592.9896851,0.02009607106,
591.9887085,0.001249006134,591.9887085,0.1433518082,591.9887085,0.01216170099,591.9887085,0.02108135074,
590.9874878,0.0003103282943,590.9874878,0.1442591548,590.9874878,0.01194774639,590.9874878,0.02053208649,
589.9860229,0.0008378045168,589.9860229,0.1451961696,589.9860229,0.01240415405,589.9860229,0.0210495051,
588.9842529,0.0004722355225,588.9842529,0.1474944353,588.9842529,0.01346064825,588.9842529,0.02081950381,
587.9821777,-8.904681636E-006,587.9821777,0.1473126709,587.9821777,0.01271025557,587.9821777,0.02074360661,
587.0170898,0.0008041149704,587.0170898,0.1499468535,587.0170898,0.01460002456,587.0170898,0.02156038582,
586.0145264,0.0004181560944,586.0145264,0.1527083218,586.0145264,0.01397772413,586.0145264,0.02194758132,
585.0117798,0.001335411333,585.0117798,0.1543079913,585.0117798,0.01434366126,585.0117798,0.02173201926,
584.008667,0.0007825384964,584.008667,0.1555439383,584.008667,0.01459073555,584.008667,0.02241882309,
583.0054321,0.0008444701089,583.0054321,0.1578131467,583.0054321,0.01605623588,583.0054321,0.02317207865,
582.0018921,0.0006449875655,582.0018921,0.1594458222,582.0018921,0.01544657163,582.0018921,0.02318756096,
580.9979858,0.00116446102,580.9979858,0.1620844454,580.9979858,0.01690301858,580.9979858,0.02450930513,
579.9940186,0.0003890332009,579.9940186,0.1659445316,579.9940186,0.016603522,579.9940186,0.02454283088,
578.9896851,9.785998554E-005,578.9896851,0.1667289585,578.9896851,0.01605575159,578.9896851,0.02446617,
577.9851685,0.000490298029,577.9851685,0.1687142402,577.9851685,0.01799931563,577.9851685,0.02525925636,
577.0174561,0.0005956561654,577.0174561,0.1715948284,577.0174561,0.01895150542,577.0174561,0.02627857961,
576.0124512,0.0007589145098,576.0124512,0.1744198948,576.0124512,0.01915838756,576.0124512,0.0262944214,
575.0070801,0.001107181073,575.0070801,0.1759490073,575.0070801,0.01985494979,575.0070801,0.02718187124,
574.0015259,0.0005775114987,574.0015259,0.1776007414,574.0015259,0.01999731362,574.0015259,0.02737859637,
572.9956665,0.0006118832971,572.9956665,0.179687202,572.9956665,0.02006204613,572.9956665,0.02719245292,
571.989563,0.0003479691222,571.989563,0.1783280671,571.989563,0.02055949904,571.989563,0.02784235775,
570.9832764,0.0005028930027,570.9832764,0.181440115,570.9832764,0.02068488114,570.9832764,0.02674430609,
570.0139771,0.0008553894004,570.0139771,0.1804498136,570.0139771,0.02101350389,570.0139771,0.02842493914,
569.0071411,0.0007178672822,569.0071411,0.1821831316,569.0071411,0.02090168931,569.0071411,0.02798197977,
568.000061,0.001395681873,568.000061,0.1831265688,568.000061,0.02030057088,568.000061,0.02760969661,
566.9927368,0.0004647463793,566.9927368,0.1820102632,566.9927368,0.02054503188,566.9927368,0.0276631061,
565.9851685,0.0006168085965,565.9851685,0.1791142076,565.9851685,0.02101073228,565.9851685,0.02751991712,
565.0146484,0.0007274869713,565.0146484,0.1816517413,565.0146484,0.02029964887,565.0146484,0.02793380432,
564.0065918,5.708231038E-005,564.0065918,0.1804351807,564.0065918,0.01994792931,564.0065918,0.02781881578,
562.998291,-0.0004800228635,562.998291,0.1787987798,562.998291,0.01961832307,562.998291,0.02683657035,
561.9897461,0.0005813995376,561.9897461,0.1773030758,561.9897461,0.01967777312,561.9897461,0.02764531039,
561.0182495,0.0007341508754,561.0182495,0.1764671952,561.0182495,0.02006643824,561.0182495,0.02766236104,
560.0092773,0.0006075024139,560.0092773,0.1753006727,560.0092773,0.019150462,560.0092773,0.02690073289,
558.999939,0.000781215902,558.999939,0.1745354384,558.999939,0.01956938952,558.999939,0.02712403052,
557.9904175,0.001127138617,557.9904175,0.1755636483,557.9904175,0.02001693845,557.9904175,0.02757841721,
557.0180054,0.0002649719245,557.0180054,0.1727310866,557.0180054,0.01857034676,557.0180054,0.02610912733,
556.0079956,0.0002788036945,556.0079956,0.1724773347,556.0079956,0.01859714836,556.0079956,0.02582645789,
554.9977417,0.0007763925241,554.9977417,0.173278898,554.9977417,0.01936650649,554.9977417,0.02656737901,
553.9872437,0.0007252311334,553.9872437,0.1717224717,553.9872437,0.01857518218,553.9872437,0.02605024725,
553.013916,0.0005655882414,553.013916,0.1699049026,553.013916,0.01846650615,553.013916,0.0266194474,
552.0029907,0.0003057432186,552.0029907,0.1720181853,552.0029907,0.01849602908,552.0029907,0.02618654631,
550.9916992,5.927927305E-006,550.9916992,0.173880443,550.9916992,0.01779969968,550.9916992,0.02640152536,
550.0177002,0.0003166749375,550.0177002,0.1724519134,550.0177002,0.01737094298,550.0177002,0.0265235696,
549.0059814,0.001190780662,549.0059814,0.1736618429,549.0059814,0.01883784123,549.0059814,0.02757226676,
547.9940796,0.001876743743,547.9940796,0.1744240671,547.9940796,0.01977678202,547.9940796,0.02710708417,
546.9818726,0.0008130882052,546.9818726,0.1733836234,546.9818726,0.01945315488,546.9818726,0.0276678782,
546.006958,0.0008003027178,546.006958,0.1755471677,546.006958,0.01974985376,546.006958,0.02810176276,
544.9943237,0.00055623136,544.9943237,0.1767164171,544.9943237,0.01951726526,544.9943237,0.02850653045,
543.9814453,0.0003023238969,543.9814453,0.1753905565,543.9814453,0.019349318,543.9814453,0.02727020346,
543.0057983,0.0004841820919,543.0057983,0.1759017259,543.0057983,0.01944814622,543.0057983,0.02743682824,
541.9924316,0.0001209042966,541.9924316,0.1772731692,541.9924316,0.01998731121,541.9924316,0.02755524777,
541.0164185,0.00144313043,541.0164185,0.1784789115,541.0164185,0.02166287228,541.0164185,0.03025009669,
540.0025635,-0.0004929513671,540.0025635,0.1787105352,540.0025635,0.02162078209,540.0025635,0.02968740091,
538.9884644,0.0003888777574,538.9884644,0.1785325855,538.9884644,0.02071284503,538.9884644,0.028920779,
538.0116577,0.0007944676909,538.0116577,0.1800860316,538.0116577,0.02130009793,538.0116577,0.02885053493,
536.9971924,0.000568206131,536.9971924,0.1791816652,536.9971924,0.02066870034,536.9971924,0.0284743011,
535.9824219,0.0004505718534,535.9824219,0.1803306341,535.9824219,0.02104466781,535.9824219,0.02777537704,
535.0050049,0.0005213714903,535.0050049,0.1802007109,535.0050049,0.0212367028,535.0050049,0.02764202841,
533.9897461,0.0003778664977,533.9897461,0.1782561392,533.9897461,0.02002713084,533.9897461,0.02795150131,
533.0119019,0.0007598739467,533.0119019,0.1771971881,533.0119019,0.02153345384,533.0119019,0.02945585735,
531.9962158,0.0007577216602,531.9962158,0.1784951091,531.9962158,0.02051376924,531.9962158,0.02902333066,
531.0179443,0.0003804314474,531.0179443,0.177609548,531.0179443,0.01986039616,531.0179443,0.02789797448,
530.00177,0.0007428374374,530.00177,0.1734467596,530.00177,0.01995587163,530.00177,0.02639063261,
528.9854126,0.0007859616308,528.9854126,0.1761468202,528.9854126,0.02094009891,528.9854126,0.02788535878,
528.0064697,0.0007553100586,528.0064697,0.1739964038,528.0064697,0.01917372644,528.0064697,0.02945721522,
526.989563,0.0003442126617,526.989563,0.174179092,526.989563,0.01878767088,526.989563,0.028235998,
526.0101929,0.0006104316562,526.0101929,0.1718285829,526.0101929,0.01973173209,526.0101929,0.02760235965,
524.9929199,0.0003694722254,524.9929199,0.1733623892,524.9929199,0.01980246603,524.9929199,0.02768879011,
524.0130615,0.001741548767,524.0130615,0.1731756777,524.0130615,0.02048549242,524.0130615,0.02928983979,
522.9953003,0.00126595865,522.9953003,0.1727026999,522.9953003,0.01978138834,522.9953003,0.02801259793,
522.0150146,0.0003488240473,522.0150146,0.1693754047,522.0150146,0.01901527122,522.0150146,0.02695375122,
520.9968262,0.0008019884117,520.9968262,0.1692859083,520.9968262,0.01927159354,520.9968262,0.02727568708,
520.0161133,0.001030317857,520.0161133,0.1652519852,520.0161133,0.01868777722,520.0161133,0.02704812586,
518.9974976,0.0008103651344,518.9974976,0.1667460948,518.9974976,0.0183137618,518.9974976,0.02651391178,
518.0163574,-0.0001232514915,518.0163574,0.1653196663,518.0163574,0.01812636293,518.0163574,0.02636626177,
516.9972534,0.0005828252179,516.9972534,0.1670416594,516.9972534,0.0183529146,516.9972534,0.02692075446,
516.015686,0.0006368473405,516.015686,0.1642902344,516.015686,0.01856645569,516.015686,0.02660161257,
514.9960327,0.0006913170218,514.9960327,0.1620035022,514.9960327,0.01778168418,514.9960327,0.0262666177,
514.0140991,-0.00065581745,514.0140991,0.160116449,514.0140991,0.01743776537,514.0140991,0.02569420077,
512.9941406,0.0005731309648,512.9941406,0.1627026349,512.9941406,0.01723641343,512.9941406,0.02520060167,
512.0117188,0.0005362740485,512.0117188,0.1618487835,512.0117188,0.01730071008,512.0117188,0.02563793026,
510.9913025,0.0005909643951,510.9913025,0.1630300134,510.9913025,0.01731716841,510.9913025,0.02548774891,
510.0083923,0.0003376324603,510.0083923,0.1620439142,510.0083923,0.01704016328,510.0083923,0.02540452778,
508.9875793,0.0007039696793,508.9875793,0.1602609754,508.9875793,0.01715456881,508.9875793,0.02570897527,
508.0043335,0.0002710588742,508.0043335,0.1612809598,508.0043335,0.01673223265,508.0043335,0.02563136816,
506.9829712,0.0001020285854,506.9829712,0.1614152938,506.9829712,0.01644390449,506.9829712,0.02511340193,
505.9992981,0.0009791525081,505.9992981,0.1612936854,505.9992981,0.01722345874,505.9992981,0.02527763881,
505.0153198,0.0003497566795,505.0153198,0.1594737768,505.0153198,0.01624723151,505.0153198,0.02527887374,
503.9934387,0.0003392904473,503.9934387,0.1600970924,503.9934387,0.01650464162,503.9934387,0.02539566346,
503.0091248,0.000295511185,503.0091248,0.1603855491,503.0091248,0.016632488,503.0091248,0.02482296526,
501.9866943,0.0001740403532,501.9866943,0.1592245847,501.9866943,0.01647933945,501.9866943,0.0248379577,
501.0019531,0.0003454302787,501.0019531,0.1561176777,501.0019531,0.01573611796,501.0019531,0.02460492961,
500.0170593,0.000444326899,500.0170593,0.1587887406,500.0170593,0.01532845851,500.0170593,0.0250419341,
498.993988,-0.0001281683944,498.993988,0.1575942636,498.993988,0.01553810202,498.993988,0.02472847141,
498.008606,0.0004877065367,498.008606,0.1566549838,498.008606,0.01609575003,498.008606,0.0252119042,
496.9851074,0.0004530854058,496.9851074,0.1566461921,496.9851074,0.01648681425,496.9851074,0.02524723858,
495.9993591,0.0009418200934,495.9993591,0.157865569,495.9993591,0.01638185792,495.9993591,0.02586937137,
495.0133972,0.0005656141439,495.0133972,0.1586970687,495.0133972,0.0170520898,495.0133972,0.02574764751,
493.9892883,0.0004863071081,493.9892883,0.1581024379,493.9892883,0.0162091013,493.9892883,0.02468276583,
493.0028992,0.0001658830734,493.0028992,0.1565983295,493.0028992,0.01577028818,493.0028992,0.02413618192,
492.0163269,0.0006015662802,492.0163269,0.1564726084,492.0163269,0.01620859094,492.0163269,0.02507138625,
490.9915771,0.0006109760143,490.9915771,0.1581533253,490.9915771,0.01706622355,490.9915771,0.02676057629,
490.0046082,0.0004968286958,490.0046082,0.1578313857,490.0046082,0.0164904166,490.0046082,0.02585288696,
489.0173645,0.0001322456519,489.0173645,0.1587904543,489.0173645,0.01600958034,489.0173645,0.02475362644,
487.9919739,0.0002040293475,487.9919739,0.1565008909,487.9919739,0.01639435813,487.9919739,0.02514019981,
487.0043945,0.0006826055469,487.0043945,0.1572667211,487.0043945,0.01696963422,487.0043945,0.02622721158,
486.0166016,-9.20407474E-005,486.0166016,0.1567392796,486.0166016,0.01617992111,486.0166016,0.0256057214,
484.9906311,6.453851529E-005,484.9906311,0.1544812322,484.9906311,0.01562723704,484.9906311,0.02458969876,
484.0023804,0.0004258517001,484.0023804,0.1543793082,484.0023804,0.01679887623,484.0023804,0.02616749145,
483.0140076,0.001213597483,483.0140076,0.1584677845,483.0140076,0.01792741567,483.0140076,0.02774505131,
481.9874268,0.0005277989549,481.9874268,0.1592844278,481.9874268,0.01661691628,481.9874268,0.02615385503,
480.9985657,0.000434817106,480.9985657,0.1569093615,480.9985657,0.01579866186,480.9985657,0.02699275501,
480.009613,0.0002571496589,480.009613,0.1594777405,480.009613,0.01624521613,480.009613,0.02660780586,
478.9822998,0.0003705085546,478.9822998,0.158895582,478.9822998,0.01612317748,478.9822998,0.02659544908,
477.9929199,0.000835859275,477.9929199,0.160526827,477.9929199,0.01721519046,477.9929199,0.02699291892,
477.0033264,0.0006954653654,477.0033264,0.1616305113,477.0033264,0.01626580022,477.0033264,0.02705674805,
476.0135498,0.0005838361103,476.0135498,0.1610786915,476.0135498,0.01736779138,476.0135498,0.02727169171,
474.9854736,0.0001483260421,474.9854736,0.1610464752,474.9854736,0.01713989303,474.9854736,0.02695014328,
473.9953308,0.0006001665024,473.9953308,0.1604759991,473.9953308,0.01789952256,473.9953308,0.02755414508,
473.0049133,0.0008654790581,473.0049133,0.1621978134,473.0049133,0.01842550561,473.0049133,0.02775073424,
472.0143738,0.0005277989549,472.0143738,0.1612919569,472.0143738,0.0184964072,472.0143738,0.02832877263,
470.9855347,0.0001123078473,470.9855347,0.1612649411,470.9855347,0.0183131136,470.9855347,0.0282605309,
469.9945374,0.0002219512244,469.9945374,0.1641405821,469.9945374,0.01832793839,469.9945374,0.02849843167,
469.003418,0.0004050971766,469.003418,0.1665991247,469.003418,0.01946598664,469.003418,0.02892938443,
468.012085,0.0001578813244,468.012085,0.1677707732,468.012085,0.01949184202,468.012085,0.02909401804,
466.9823608,0.0006219931529,466.9823608,0.1678939909,466.9823608,0.01991459541,466.9823608,0.03011279367,
465.9906006,0.001504299114,465.9906006,0.1697745472,465.9906006,0.02150891908,465.9906006,0.03108443879,
464.9987183,0.0005891757901,464.9987183,0.172882691,464.9987183,0.02083631605,464.9987183,0.03135491535,
464.0065613,0.0003452748351,464.0065613,0.1730278283,464.0065613,0.02066299878,464.0065613,0.03121275827,
463.0142822,0.000353565003,463.0142822,0.1743118316,463.0142822,0.02117244713,463.0142822,0.03168124706,
461.9836731,0.000263987662,461.9836731,0.1768458039,461.9836731,0.02131516114,461.9836731,0.03161988035,
460.9909668,0.0007271498907,460.9909668,0.1775939614,460.9909668,0.02269339189,460.9909668,0.03254635632,
459.9980774,0.000248058408,459.9980774,0.1821959615,459.9980774,0.02184815705,459.9980774,0.03331449255,
459.0050354,-0.0007631722256,459.0050354,0.1860384345,459.0050354,0.02373191155,459.0050354,0.03498128802,
458.0117798,-2.697234049E-005,458.0117798,0.186124444,458.0117798,0.02353267744,458.0117798,0.0351232551,
457.0183105,0.001312094857,457.0183105,0.1905674934,457.0183105,0.02577247843,457.0183105,0.03658314049,
455.9865112,-0.0003527342342,455.9865112,0.1934797317,455.9865112,0.02608587034,455.9865112,0.03659102321,
454.9926758,2.705167935E-005,454.9926758,0.1970997602,454.9926758,0.02628996596,454.9926758,0.03738074377,
453.9986877,0.0005124561139,453.9986877,0.2010772377,453.9986877,0.02691197023,453.9986877,0.03801997751,
453.0045166,0.0003925827914,453.0045166,0.2048876286,453.0045166,0.02791169286,453.0045166,0.0382790342,
452.0101013,0.0002315081365,452.0101013,0.2079661787,452.0101013,0.02835734375,452.0101013,0.0399809517,
451.0155945,0.000481331459,451.0155945,0.212998718,451.0155945,0.03031351604,451.0155945,0.04152620956,
449.9825745,4.965212429E-005,449.9825745,0.216643244,449.9825745,0.03129732236,449.9825745,0.04229985178,
448.9876404,0.0003339538234,448.9876404,0.220942378,448.9876404,0.03163828328,448.9876404,0.04238360748,
447.9924927,0.0005464599235,447.9924927,0.2249059826,447.9924927,0.03271142021,447.9924927,0.04442234337,
446.9972534,0.0004762522294,446.9972534,0.2292962819,446.9972534,0.03457341343,446.9972534,0.04598996416,
446.00177,0.0001782355685,446.00177,0.2366467863,446.00177,0.03582677618,446.00177,0.04787431657,
445.0061035,0.000672234979,445.0061035,0.2428153008,445.0061035,0.03710998595,445.0061035,0.04980708659,
444.0102234,0.0001646659657,444.0102234,0.2503534853,444.0102234,0.03875651211,444.0102234,0.04999121279,
443.0142212,0.0006124276551,443.0142212,0.2560069859,443.0142212,0.04076236114,443.0142212,0.05320947245,
442.0180664,-0.0006095489953,442.0180664,0.2610519826,442.0180664,0.04237986729,442.0180664,0.05459474027,
440.9833374,0.0004260849091,440.9833374,0.2732898891,440.9833374,0.04509523883,440.9833374,0.0572794117,
439.9867554,0.001437624334,439.9867554,0.2907496393,439.9867554,0.04799153283,439.9867554,0.06116306409,
438.9900208,0.000578081701,438.9900208,0.2978572249,438.9900208,0.04971216246,438.9900208,0.06296533346,
437.9930725,0.0005620890879,437.9930725,0.3110889494,437.9930725,0.05326425284,437.9930725,0.06639392674,
436.9959106,0.0002749442356,436.9959106,0.3238169253,436.9959106,0.05636689812,436.9959106,0.06965031475,
435.9986267,0.0004139585362,435.9986267,0.3425850272,435.9986267,0.05933612958,435.9986267,0.07255381346,
435.0012207,0.0005457860534,435.0012207,0.3551047146,435.0012207,0.06510623544,435.0012207,0.07801618427,
434.0035706,0.0003854577662,434.0035706,0.3756886423,434.0035706,0.06882974505,434.0035706,0.08162380755,
433.0057068,9.319948731E-005,433.0057068,0.3996137083,433.0057068,0.07389207184,433.0057068,0.08684646338,
432.007782,0.0002940864943,432.007782,0.4218328595,432.007782,0.07923471928,432.007782,0.09170760214,
431.0095825,0.0008910801844,431.0095825,0.4484264851,431.0095825,0.0847741589,431.0095825,0.09764251858,
430.0112305,0.001576205948,430.0112305,0.4709264934,430.0112305,0.09136687964,430.0112305,0.1046133116,
429.0127258,0.001233559917,429.0127258,0.5001844764,429.0127258,0.09734520316,429.0127258,0.1099236608,
428.0140381,0.001059976872,428.0140381,0.5285068154,428.0140381,0.1039032564,428.0140381,0.1154353619,
427.0151672,0.0004594600468,427.0151672,0.5590427518,427.0151672,0.1105405167,427.0151672,0.1210187078,
426.0160522,0.0007258274709,426.0160522,0.5858389735,426.0160522,0.1164485291,426.0160522,0.1262472868,
425.0168762,0.0002886467846,425.0168762,0.6119028926,425.0168762,0.1220823005,425.0168762,0.1315851808,
424.0175171,-0.0003638042836,424.0175171,0.6320733428,424.0175171,0.127396971,424.0175171,0.136768654,
423.0179749,0.0004854260187,423.0179749,0.6578714848,423.0179749,0.1332074106,423.0179749,0.1418173909,
422.0181885,-3.939665839E-005,422.0181885,0.6783807278,422.0181885,0.1363582164,422.0181885,0.1437063962,
421.0182495,0.0008394125034,421.0182495,0.6945282221,421.0182495,0.1409139782,421.0182495,0.1474219561,
420.018219,0.0007130704471,420.018219,0.7058131099,420.018219,0.1439207643,420.018219,0.1504864544,
419.0179138,0.0009335965151,419.0179138,0.7118621469,419.0179138,0.1443764716,419.0179138,0.1509603858,
418.0174866,0.0005327751278,418.0174866,0.7129713297,418.0174866,0.1449947506,418.0174866,0.150766179,
417.0169373,0.0001326340716,417.0169373,0.7108162045,417.0169373,0.1442504525,417.0169373,0.1494018584,
416.0161743,0.0003879709402,416.0161743,0.7035198808,416.0161743,0.1421337426,416.0161743,0.1474132687,
415.0151978,0.001294647111,415.0151978,0.6932604313,415.0151978,0.1402787566,415.0151978,0.1448669136,
414.0140991,0.0007242976571,414.0140991,0.6764242053,414.0140991,0.1364935488,414.0140991,0.141325146,
413.0128479,0.000356725679,413.0128479,0.6648516655,413.0128479,0.1315649301,413.0128479,0.1363065541,
412.0114136,0.001152962795,412.0114136,0.6430662274,412.0114136,0.1291983724,412.0114136,0.1334910691,
411.0097961,0.0002032783086,411.0097961,0.6207028031,411.0097961,0.1232548952,411.0097961,0.1271257699,
410.0080261,-3.753303099E-005,410.0080261,0.6027231812,410.0080261,0.1185183525,410.0080261,0.1238762289,
409.006073,-1.899988456E-005,409.006073,0.5810620189,409.006073,0.112320058,409.006073,0.1207868308,
408.0039063,0.0004027652903,408.0039063,0.5609098673,408.0039063,0.1083910763,408.0039063,0.1162398756,
407.0016785,0.0003539017926,407.0016785,0.540420115,407.0016785,0.1035084128,407.0016785,0.1113275811,
405.9992676,0.0003777369566,405.9992676,0.5188319683,405.9992676,0.09996494651,405.9992676,0.1080088019,
404.9966431,0.0004626214795,404.9966431,0.5013207197,404.9966431,0.09600561857,404.9966431,0.1037470251,
403.9938354,0.0006728572189,403.9938354,0.4857170284,403.9938354,0.09247698635,403.9938354,0.1009198204,
402.9909058,0.001089534024,402.9909058,0.4685971141,402.9909058,0.08939184248,402.9909058,0.09890891612,
401.9878235,0.0001741698361,401.9878235,0.4531315565,401.9878235,0.08478819579,401.9878235,0.09481275082,
400.9845276,0.0005434015184,400.9845276,0.4369181097,400.9845276,0.08113007993,400.9845276,0.09069854766,
399.9810791,0.0004553916515,399.9810791,0.4241255522,399.9810791,0.07792061567,399.9810791,0.08804313838,
399.0161133,0.0007292242371,399.0161133,0.4138733447,399.0161133,0.07602240145,399.0161133,0.08614164591,
398.0123596,0.0002689867106,398.0123596,0.3999708295,398.0123596,0.07271898538,398.0123596,0.08324184269,
397.0084534,0.0004384188796,397.0084534,0.3876375556,397.0084534,0.07056793571,397.0084534,0.08111276478,
396.004364,0.0001896561298,396.004364,0.3785849214,396.004364,0.06714666635,396.004364,0.07747597992,
395.0001526,0.0002333988232,395.0001526,0.3680129051,395.0001526,0.06568130851,395.0001526,0.07618170977,
393.9957581,0.0007093367749,393.9957581,0.3597203195,393.9957581,0.06404807419,393.9957581,0.07563645393,
392.9911499,0.001328063081,392.9911499,0.3522214592,392.9911499,0.06330942363,392.9911499,0.07424668223,
391.9864502,0.0005378550268,391.9864502,0.3428603113,391.9864502,0.05980811268,391.9864502,0.07028834522,
390.9815369,0.0001611700573,390.9815369,0.3358491361,390.9815369,0.05787694082,390.9815369,0.07078594714,
390.0151672,-0.0006488387007,390.0151672,0.3278061152,390.0151672,0.05625352636,390.0151672,0.06735075265,
389.0100098,0.0001263936865,389.0100098,0.3208024502,389.0100098,0.054613702,389.0100098,0.0660430789,
388.0046387,-3.214918252E-005,388.0046387,0.3137812614,388.0046387,0.05298151076,388.0046387,0.06524095684,
386.9991455,0.0006171974237,386.9991455,0.3085308671,386.9991455,0.05227223411,386.9991455,0.06451980025,
385.9934692,0.0003142398782,385.9934692,0.3031133413,385.9934692,0.05163498595,385.9934692,0.06278603524,
384.9876404,0.0005205421476,384.9876404,0.2990049124,384.9876404,0.05019550025,384.9876404,0.06292741746,
383.9816589,7.851923874E-005,383.9816589,0.2939021289,383.9816589,0.04851006344,383.9816589,0.06113633141,
383.0142212,0.0002734677983,383.0142212,0.2912270427,383.0142212,0.04867592081,383.0142212,0.06130347773,
382.0079041,0.0003829964262,382.0079041,0.2862223387,382.0079041,0.04798973724,382.0079041,0.05994823575,
381.0014954,0.0008701218758,381.0014954,0.2842277586,381.0014954,0.04649170116,381.0014954,0.05967563391,
379.994873,0.0002803319367,379.994873,0.2804483473,379.994873,0.04561400414,379.994873,0.05938028917,
378.9881287,0.0005614670226,378.9881287,0.2811858058,378.9881287,0.04635322839,378.9881287,0.05844336748,
377.9812012,-8.231660104E-006,377.9812012,0.277230978,377.9812012,0.04542617127,377.9812012,0.05735995993,
377.0128784,0.001068747719,377.0128784,0.2774081528,377.0128784,0.04557820782,377.0128784,0.05883552507,
376.0056763,0.0009025973268,376.0056763,0.2757686973,376.0056763,0.04546247423,376.0056763,0.05788386241,
374.9983215,0.0006834611413,374.9983215,0.2768809497,374.9983215,0.04588099569,374.9983215,0.0579931885,
373.9908142,0.0001196096418,373.9908142,0.2762403786,373.9908142,0.04516046494,373.9908142,0.05808443576,
372.9831238,0.0002597657149,372.9831238,0.2769114375,372.9831238,0.04537800699,372.9831238,0.05855926499,
372.0140686,0.0002425415732,372.0140686,0.2769063711,372.0140686,0.04453063011,372.0140686,0.05696984008,
371.006073,0.0006799350958,371.006073,0.2771883905,371.006073,0.04581100121,371.006073,0.05844692141,
369.9979858,3.111604747E-005,369.9979858,0.2790330946,369.9979858,0.04545681179,369.9979858,0.05879805982,
368.9896851,0.0006496021524,368.9896851,0.279686451,368.9896851,0.04620239511,368.9896851,0.05966340005,
367.9812927,0.0003312596236,367.9812927,0.2807528079,367.9812927,0.04688604176,367.9812927,0.0582372658,
367.0115051,0.0005789630231,367.0115051,0.2795993686,367.0115051,0.04645419121,367.0115051,0.05925467983,
366.0028076,-9.918370051E-005,366.0028076,0.2840743959,366.0028076,0.04718628153,366.0028076,0.06019662693,
364.9939575,0.0005773818702,364.9939575,0.285716176,364.9939575,0.04755855352,364.9939575,0.06013249606,
363.9848938,0.0001204382206,363.9848938,0.2864724398,363.9848938,0.04796834663,363.9848938,0.06045539677,
363.0145264,0.000844288501,363.0145264,0.2896293998,363.0145264,0.04840129986,363.0145264,0.06007006764,
362.005249,9.866263281E-005,362.005249,0.2902292609,362.005249,0.04893923923,362.005249,0.06194875762,
360.9957886,0.0003375029191,360.9957886,0.2930707037,360.9957886,0.04972141981,360.9957886,0.06189896166,
359.9861755,0.000500301423,359.9861755,0.2946781218,359.9861755,0.04987836257,359.9861755,0.06257858127,
359.0152893,0.0004245043092,359.0152893,0.2951400578,359.0152893,0.04885064811,359.0152893,0.06208485365,
358.0054016,7.072622248E-005,358.0054016,0.291955173,358.0054016,0.04874064028,358.0054016,0.06115558371,
356.9953308,0.0008894201019,356.9953308,0.2928678393,356.9953308,0.05049405247,356.9953308,0.0638525486,
355.985199,0.000366544642,355.985199,0.2919581532,355.985199,0.04923249409,355.985199,0.0616299361,
355.0137024,0.0002207339712,355.0137024,0.2937386334,355.0137024,0.04973631352,355.0137024,0.06295279413,
354.0032349,7.750950317E-005,354.0032349,0.2907503545,354.0032349,0.04758769274,354.0032349,0.06159106269,
352.9926453,0.0004008738615,352.9926453,0.2929212749,352.9926453,0.04882915318,352.9926453,0.06219136342,
351.9818726,-8.743399667E-005,351.9818726,0.2904750705,351.9818726,0.04784506559,351.9818726,0.06094107404,
351.0098572,0.0001291902008,351.0098572,0.2877759337,351.0098572,0.0489907302,351.0098572,0.06162098423,
349.9988098,0.0002312491415,349.9988098,0.2848612666,349.9988098,0.04756054282,349.9988098,0.06107715517,
348.9876404,0.0005952932406,348.9876404,0.284032017,348.9876404,0.04694069177,348.9876404,0.05976482853,
348.0152283,0.0009931108216,348.0152283,0.2838666141,348.0152283,0.04785494879,348.0152283,0.06015610322,
347.0037842,-0.0001672429207,347.0037842,0.2794128954,347.0037842,0.0450624153,347.0037842,0.05844528973,
345.9921875,0.0005613374524,345.9921875,0.2764565051,345.9921875,0.04450014234,345.9921875,0.05874485895,
345.0193481,0.0010064987,345.0193481,0.2738891542,345.0193481,0.04439533502,345.0193481,0.05855067447,
344.0074768,0.0003633320739,344.0074768,0.272791028,344.0074768,0.04376741126,344.0074768,0.0580589287,
342.9954834,-0.0002438808733,342.9954834,0.2702409923,342.9954834,0.04332740977,342.9954834,0.05781258643,
341.9833069,0.001180631574,341.9833069,0.2672703266,341.9833069,0.04262891784,341.9833069,0.05610257015,
341.0099487,0.0001427327952,341.0099487,0.2616413534,341.0099487,0.04077453166,341.0099487,0.0554148294,
339.9975281,0.0005538208643,339.9975281,0.2611295879,339.9975281,0.04039331153,339.9975281,0.05540135875,
338.9849548,0.0009011446964,338.9849548,0.2572565079,338.9849548,0.03907763585,338.9849548,0.05328839645,
338.0112,-0.0001327229693,338.0112,0.254855901,338.0112,0.03806880489,338.0112,0.05332676321,
336.9983215,-0.000241293732,336.9983215,0.2521454692,336.9983215,0.03695175424,336.9983215,0.05195384473,
335.9853821,0.0006336846272,335.9853821,0.2500508726,335.9853821,0.03644449636,335.9853821,0.05112896115,
335.0112305,0.0005315570161,335.0112305,0.2480672151,335.0112305,0.03529721498,335.0112305,0.05028311536,
333.9979858,0.0002094938827,333.9979858,0.2424489856,333.9979858,0.03359824792,333.9979858,0.04941608757,
332.9846191,0.0005116786342,332.9846191,0.2397916019,332.9846191,0.0333632417,332.9846191,0.04840364307,
332.0100708,0.0007436671876,332.0100708,0.2373124063,332.0100708,0.03324040398,332.0100708,0.04872442409,
330.9964294,0.0007728916244,330.9964294,0.2342672497,330.9964294,0.03124608099,330.9964294,0.04767568409,
329.9826355,0.000980735058,329.9826355,0.2303259224,329.9826355,0.03013060614,329.9826355,0.0457187593,
329.0077209,0.000716985669,329.0077209,0.2252763212,329.0077209,0.02946516499,329.0077209,0.046070721,
327.9936829,0.0001817316224,327.9936829,0.2244122177,327.9936829,0.02817569859,327.9936829,0.04405489936,
327.0185242,-0.000141521421,327.0185242,0.2232664824,327.0185242,0.02684827335,327.0185242,0.04336396232,
326.0041809,0.0009085375932,326.0041809,0.2226641327,326.0041809,0.02779828198,326.0041809,0.04450748488,
324.9897461,0.001296438626,324.9897461,0.2176991701,324.9897461,0.02699991688,324.9897461,0.04301644862,
324.0142212,-0.000285894057,324.0142212,0.2172063887,324.0142212,0.02434590645,324.0142212,0.04149120674,
322.9994812,0.0009756240761,322.9994812,0.2160870284,322.9994812,0.02677114867,322.9994812,0.04365353286,
321.9846802,0.0007323616883,321.9846802,0.2131965607,321.9846802,0.02309295721,321.9846802,0.04221665487,
321.0087585,-0.0001534766634,321.0087585,0.2119182646,321.0087585,0.02412758954,321.0087585,0.0405619517,
319.9936523,0.0006147088716,319.9936523,0.2073268294,319.9936523,0.02244387381,319.9936523,0.03999048844,
319.0174866,0.0007230789633,319.0174866,0.2087958455,319.0174866,0.02340119705,319.0174866,0.04086641222,
318.0021667,0.0004271472571,318.0021667,0.2064631134,318.0021667,0.02290583029,318.0021667,0.0394808054,
316.9866638,0.0006563944626,316.9866638,0.2073118836,316.9866638,0.02203382179,316.9866638,0.03952749819,
316.0101013,6.873268285E-005,316.0101013,0.2064979672,316.0101013,0.02064679191,316.0101013,0.03868598863,
314.9943848,0.0001673332445,314.9943848,0.2062394768,314.9943848,0.02080959268,314.9943848,0.03798437864,
314.0176392,0.0006830462953,314.0176392,0.2069786936,314.0176392,0.02199733071,314.0176392,0.04099626094,
313.0016479,0.000477833004,313.0016479,0.2087005675,313.0016479,0.02152265608,313.0016479,0.04099594802,
311.9855347,0.0007517056656,311.9855347,0.2121972889,311.9855347,0.02256252058,311.9855347,0.04203157127,
311.0083923,0.0006395953242,311.0083923,0.2127081454,311.0083923,0.02246333659,311.0083923,0.04293256998,
309.9920044,0.0003354822693,309.9920044,0.2146193981,309.9920044,0.02332252637,309.9920044,0.04474338144,
309.0146484,0.0001964930561,309.0146484,0.220068112,309.0146484,0.02468635514,309.0146484,0.04652031139,
307.9980164,0.0002271828998,307.9980164,0.2258375585,307.9980164,0.02604224905,307.9980164,0.04939558357,
306.9812927,0.0002967545588,306.9812927,0.2344955802,306.9812927,0.02756081894,306.9812927,0.05302371085,
306.00354,0.0008695512661,306.00354,0.243309781,306.00354,0.03074955381,306.00354,0.05941219628,
304.9865417,0.0005643441109,304.9865417,0.2569132447,304.9865417,0.03383581713,304.9865417,0.06573662907,
304.0085754,0.0002724576043,304.0085754,0.2754378021,304.0085754,0.03946688399,304.0085754,0.07468885928,
302.9913635,0.0003038004215,302.9913635,0.2985261977,302.9913635,0.04296083376,302.9913635,0.08509088308,
302.0131531,0.0005615966511,302.0131531,0.3290960789,302.0131531,0.04953734949,302.0131531,0.09393048286,
300.9956665,0.0008006658172,300.9956665,0.3574735224,300.9956665,0.05698589608,300.9956665,0.1149545759,
300.0172119,6.935404963E-005,300.0172119,0.37620309,300.0172119,0.06371136755,300.0172119,0.1335726082,
298.9995422,0.002974546747,298.9995422,0.4267027676,298.9995422,0.0755694136,298.9995422,0.156878382,
297.9816895,-0.001442556269,297.9816895,0.4638616145,297.9816895,0.08459547162,297.9816895,0.1792984903,
297.0028992,0.001960387453,297.0028992,0.509245038,297.0028992,0.09691919386,297.0028992,0.213674143,
295.9848633,-0.001592790242,295.9848633,0.5703226924,295.9848633,0.1102781892,295.9848633,0.242660746,
295.0058289,-0.0001316360867,295.0058289,0.6461943388,295.0058289,0.1251521856,295.0058289,0.2901627719,
293.9875183,-0.0006673450116,293.9875183,0.7113788128,293.9875183,0.1409232616,293.9875183,0.3476819992,
293.0082397,0.003140318673,293.0082397,0.7993074656,293.0082397,0.1672330648,293.0082397,0.3828955889,
291.9896851,0.003497781232,291.9896851,0.8886908889,291.9896851,0.184245646,291.9896851,0.4472998381,
291.0102234,0.005419902038,291.0102234,0.9587814808,291.0102234,0.2157263607,291.0102234,0.5256269574,
289.9914856,0.006038661115,289.9914856,1.009138107,289.9914856,0.2213253379,289.9914856,0.554743588,
289.0117798,0.005742758978,289.0117798,1.067343235,289.0117798,0.237376079,289.0117798,0.6317573786,
287.9927673,0.003640363226,287.9927673,1.118835092,287.9927673,0.2484411001,287.9927673,0.6891502738,
287.0128174,0.008801915683,287.0128174,1.201688886,287.0128174,0.2784307301,287.0128174,0.7619885206,
285.9936523,0.0009013522067,285.9936523,1.300160766,285.9936523,0.2926156819,285.9936523,0.8254259229,
285.0134888,0.002930579241,285.0134888,1.356689215,285.0134888,0.3098146617,285.0134888,0.8772203326,
283.9940186,0.0009919952136,283.9940186,1.389642,283.9940186,0.325050205,283.9940186,0.954539299,
283.0136414,-0.001167336595,283.0136414,1.427690029,283.0136414,0.3299271464,283.0136414,1.00392282,
281.993988,0.003259648802,281.993988,1.444496393,281.993988,0.3360656202,281.993988,1.061561108,
281.0133972,0.0002705926599,281.0133972,1.456082225,281.0133972,0.3401223421,281.0133972,1.116688371,
279.9934692,0.001463804743,279.9934692,1.471737385,279.9934692,0.3412491083,279.9934692,1.182487011,
279.0126953,0.002156859264,279.0126953,1.4713763,279.0126953,0.3472338319,279.0126953,1.249365807,
277.9925537,0.0005620631855,277.9925537,1.466403723,277.9925537,0.3477296531,277.9925537,1.296179414,
277.0115356,-0.0003920471936,277.0115356,1.457340121,277.0115356,0.3451210856,277.0115356,1.357277393,
275.9911804,-0.001692848629,275.9911804,1.467187166,275.9911804,0.3462970257,275.9911804,1.420323968,
275.0099487,-0.003091044724,275.0099487,1.442048669,275.0099487,0.3371213973,275.0099487,1.465593934,
273.9893494,-0.0006668797578,273.9893494,1.427675128,273.9893494,0.3319054246,273.9893494,1.557548165,
273.0079346,-0.0004289257049,273.0079346,1.399932146,273.0079346,0.3263117969,273.0079346,1.573383927,
271.9871521,0.0009086154168,271.9871521,1.35964036,271.9871521,0.3174253106,271.9871521,1.658419609,
271.0055237,-0.0003379392438,271.0055237,1.340472817,271.0055237,0.3183487356,271.0055237,1.706910133,
269.9844666,0.0007510314463,269.9844666,1.310253859,269.9844666,0.3130070567,269.9844666,1.73758924,
269.0026245,-0.0005044315476,269.0026245,1.293452263,269.0026245,0.3048989475,269.0026245,1.789280176,
267.9814148,-0.002648378257,267.9814148,1.253024101,267.9814148,0.2955206335,267.9814148,1.851271152,
266.9993286,0.0008654012345,266.9993286,1.210918188,266.9993286,0.2824128568,266.9993286,1.90864563,
266.0171814,-0.001045310753,266.0171814,1.18750298,266.0171814,0.2789584696,266.0171814,1.931662917,
264.9956055,0.0006541130715,264.9956055,1.146943808,264.9956055,0.2750814855,264.9956055,1.956474781,
264.0132446,0.005752070807,264.0132446,1.107751131,264.0132446,0.2670465708,264.0132446,2.026958704,
262.9915161,0.001511546317,262.9915161,1.065130353,262.9915161,0.2538634539,262.9915161,2.043137789,
262.0089417,0.001846015104,262.0089417,1.026709914,262.0089417,0.2437598109,262.0089417,2.039813519,
260.9869385,0.0003860277648,260.9869385,0.9918054938,260.9869385,0.2321590483,260.9869385,2.04887104,
260.0041809,0.0004685038875,260.0041809,0.9694751501,260.0041809,0.2282845378,260.0041809,2.117189646,
258.9820251,-0.0003224194515,258.9820251,0.9496869445,258.9820251,0.2250662148,258.9820251,2.112023115,
257.999054,0.00032092334,257.999054,0.9123393893,257.999054,0.2144283354,257.999054,2.198256969,
257.0159912,-6.455480616E-005,257.0159912,0.8702249527,257.0159912,0.2065066248,257.0159912,2.190238953,
255.9934692,0.001742588356,255.9934692,0.8321993947,255.9934692,0.1900361478,255.9934692,2.093091488,
255.0102081,-0.0001288929925,255.0102081,0.8112362027,255.0102081,0.1862748414,255.0102081,2.107244015,
253.9875031,0.0005277211894,253.9875031,0.7927865386,253.9875031,0.1802404225,253.9875031,2.04143095,
253.0040436,0.0002088464244,253.0040436,0.7865954638,253.0040436,0.1779255867,253.0040436,2.009010792,
251.9811554,0.0007824347704,251.9811554,0.7797847986,251.9811554,0.174967289,251.9811554,1.996758819,
250.9974976,0.0003189027484,250.9974976,0.771769464,250.9974976,0.1720865816,250.9974976,1.977741599,
250.0137787,0.0003247573331,250.0137787,0.7621121407,250.0137787,0.1717281342,250.0137787,1.94527626,
248.9905396,0.004778546281,248.9905396,0.7818002105,248.9905396,0.176726371,248.9905396,1.86644578,
248.0066071,0.0006613720907,248.0066071,0.7978935242,248.0066071,0.1770770699,248.0066071,1.816732645,
246.9832306,-0.003069659695,246.9832306,0.8456613421,246.9832306,0.1864197105,246.9832306,1.788987517,
245.999115,0.001462142449,245.999115,0.8928128481,245.999115,0.1978612542,245.999115,1.720652103,
245.0148773,-0.001919390401,245.0148773,0.9870199561,245.0148773,0.2215818465,245.0148773,1.71157217,
243.9911652,-0.01109347586,243.9911652,1.060473204,243.9911652,0.2401750833,243.9911652,1.628118634,
243.0067444,0.001319442759,243.0067444,1.171047211,243.0067444,0.2635953724,243.0067444,1.611191154,
241.9828949,0.01210545376,241.9828949,1.344323993,241.9828949,0.3152936697,241.9828949,1.583435655,
240.998291,0.0100577483,240.998291,1.507344604,240.998291,0.3544068336,240.998291,1.447522879,
240.0135956,-0.01022236329,240.0135956,1.668684959,240.0135956,0.3796897829,240.0135956,1.445716858,
238.9893951,0.0008465449791,238.9893951,1.545701623,238.9893951,0.4596792161,238.9893951,1.323512316,
238.0045471,-0.0228327103,238.0045471,1.570258737,238.0045471,0.4907036126,238.0045471,1.174644232,
237.0195923,0.009542087093,237.0195923,1.444594979,237.0195923,0.5748547912,237.0195923,1.281012416,
235.9951324,-0.01569275185,235.9951324,1.052572012,235.9951324,0.6024479866,235.9951324,0.6947872043,
235.0099792,-0.09945275635,235.0099792,10,235.0099792,0.6467505097,235.0099792,0.5243703127,
233.9853058,0.07248951495,233.9853058,1.196631551,233.9853058,0.100767076,233.9853058,0.3081492186,
233.0000153,0.2384363711,233.0000153,0.5763930082,233.0000153,-0.06028656662,233.0000153,0.1911047697,
232.0145874,0.6958184838,232.0145874,0.48113662,232.0145874,0.1133970842,232.0145874,0.4973524213,
230.9896545,-0.4146519601,230.9896545,-0.3218399882,230.9896545,-0.3417675197,230.9896545,-0.02903349511,
230.0040436,-0.007366494741,230.0040436,0.5980295539,230.0040436,-0.122655794,230.0040436,0.107532911,
229.0183716,-0.2144062519,229.0183716,-0.2227303237,229.0183716,-0.2473685443,229.0183716,-0.2280150652,
227.9931793,-0.03990245238,227.9931793,0.298745364,227.9931793,0.04443077371,227.9931793,0.1114588901,
227.0073395,-0.2904301882,227.0073395,-0.1642763019,227.0073395,-0.2965088487,227.0073395,-0.2340878844,
225.9819183,-0.1370803714,225.9819183,0.3645347357,225.9819183,-0.003732872661,225.9819183,0.6630892754,
224.9959259,0.1642870158,224.9959259,0.02004727162,224.9959259,0.07977555692,224.9959259,-0.2092441767,
224.0097961,-0.03687238693,224.0097961,0.1976923943,224.0097961,-0.08982008696,224.0097961,-0.06849645823,
222.9841614,-0.03634160385,222.9841614,0.2643752992,222.9841614,0.2615062892,222.9841614,-0.2760884762,
221.9978485,0.1412186772,221.9978485,0.0422607623,221.9978485,0.2045743614,221.9978485,0.1332137436,
221.0114899,0.5347380638,221.0114899,-0.0194312986,221.0114899,-0.03858873248,221.0114899,0.01453478914,
219.9855499,-0.1322951466,219.9855499,10,219.9855499,-0.1654088944,219.9855499,0.1284630001,
218.9989929,-0.5095952749,218.9989929,0.08528590947,218.9989929,-0.1176060066,218.9989929,10,
218.0123901,0.3855551183,218.0123901,0.2167585641,218.0123901,0.4788635373,218.0123901,10,
216.9862061,0.2174304575,216.9862061,0.4188162088,216.9862061,0.2820874155,216.9862061,0.3939062357,
215.9994202,-0.1750897318,215.9994202,10,215.9994202,-0.03735977411,215.9994202,0.2974748611,
215.0125275,0.4319878817,215.0125275,0.287989676,215.0125275,0.03178734705,215.0125275,0.3788114786,
213.9861145,-0.2267590761,213.9861145,-0.162805602,213.9861145,-0.3341163397,213.9861145,-0.1984809339,
212.999054,0.4189387262,212.999054,0.4387380183,212.999054,-0.745431304,212.999054,-0.2160747796,
212.0119629,0.08122454584,212.0119629,0.2503898442,212.0119629,0.3178851902,212.0119629,10,
210.98526,0.2045000792,210.98526,0.1226734519,210.98526,10,210.98526,0.5855796933,
209.9979858,-0.2016510963,209.9979858,10,209.9979858,-0.4562931657,209.9979858,-0.3239322603,
209.0106049,0.2265265286,209.0106049,1.212736845,209.0106049,0.3409900367,209.0106049,0.5586376786,
207.9836884,10,207.9836884,0.09651723504,207.9836884,0.1543838978,207.9836884,-0.03934764862,
206.9961395,-0.03257637843,206.9961395,-0.07328427583,206.9961395,-0.03345565125,206.9961395,0.2522601783,
206.0085602,-0.4947500825,206.0085602,10,206.0085602,-0.2478642911,206.0085602,-0.2871710956,
204.9813538,0.114632234,204.9813538,-0.06636296958,204.9813538,10,204.9813538,0.2913973033,
203.9936066,10,203.9936066,0.03718504682,203.9936066,0.06411899626,203.9936066,0.3582988977,
203.0057373,-0.06223220378,203.0057373,10,203.0057373,-0.05623788387,203.0057373,0.1782204807,
202.0178375,-0.008799643256,202.0178375,-0.08042696118,202.0178375,-0.1355383396,202.0178375,0.1667795032,
200.9903259,-0.6144382954,200.9903259,-0.01467449218,200.9903259,-0.6532531381,200.9903259,-0.2740778029,
200.0022583,-0.01933559217,200.0022583,0.8256784678,200.0022583,0.09730342776,200.0022583,0.09428326041,

baseline,
baseline
Collection Time: 18/03/2021 18:02:28
Operator Name  :
Scan Version 5.0.0.999
Parameter List :
Instrument  Cary 60
Instrument Version  2.00
Start (nm)  800.0
Stop (nm)  200.0
X Mode  Nanometers
Y Mode  Abs
UV-Vis Scan Rate (nm/min)  4800.000
UV-Vis Data Interval (nm)  1.00
UV-Vis Ave. Time (sec)  0.0125
Beam Mode  Dual Beam
Baseline Correction  On
Baseline Type  Baseline correction
Baseline File Name
Baseline Std Ref File Name
Cycle Mode  Off
Method Log     :
Method Name    :
Date/Time stamp: 18/03/2021 18:01:41
Method Modifications:
Common Interval nm Changed: 18/03/2021 18:02:08, Old:     5.00, New:     1.00
Baseline Correction Changed: 18/03/2021 18:02:08, Old:0, New:1
Storage Changed: 18/03/2021 18:02:08, Old:1, New:0
End Method Modifications
<Current Wavelength> , 206.0

a264e,
a264e
Collection Time: 18/03/2021 18:03:12
Operator Name  :
Scan Version 5.0.0.999
Parameter List :
Instrument  Cary 60
Instrument Version  2.00
Start (nm)  800.0
Stop (nm)  200.0
X Mode  Nanometers
Y Mode  Abs
UV-Vis Scan Rate (nm/min)  4800.000
UV-Vis Data Interval (nm)  1.00
UV-Vis Ave. Time (sec)  0.0125
Beam Mode  Dual Beam
Baseline Correction  On
Baseline Type  Baseline correction
Baseline File Name
Baseline Std Ref File Name
Cycle Mode  Off
Method Log     :
Method Name    :
Date/Time stamp: 18/03/2021 18:01:41
Method Modifications:
Common Interval nm Changed: 18/03/2021 18:02:08, Old:     5.00, New:     1.00
Baseline Correction Changed: 18/03/2021 18:02:08, Old:0, New:1
Storage Changed: 18/03/2021 18:02:08, Old:1, New:0
End Method Modifications
<Current Wavelength> , 264.0

1jme,
1jme
Collection Time: 18/03/2021 18:03:33
Operator Name  :
Scan Version 5.0.0.999
Parameter List :
Instrument  Cary 60
Instrument Version  2.00
Start (nm)  800.0
Stop (nm)  200.0
X Mode  Nanometers
Y Mode  Abs
UV-Vis Scan Rate (nm/min)  4800.000
UV-Vis Data Interval (nm)  1.00
UV-Vis Ave. Time (sec)  0.0125
Beam Mode  Dual Beam
Baseline Correction  On
Baseline Type  Baseline correction
Baseline File Name
Baseline Std Ref File Name
Cycle Mode  Off
Method Log     :
Method Name    :
Date/Time stamp: 18/03/2021 18:01:41
Method Modifications:
Common Interval nm Changed: 18/03/2021 18:02:08, Old:     5.00, New:     1.00
Baseline Correction Changed: 18/03/2021 18:02:08, Old:0, New:1
Storage Changed: 18/03/2021 18:02:08, Old:1, New:0
End Method Modifications
<Current Wavelength> , 211.0

k97c,
k97c
Collection Time: 18/03/2021 18:03:59
Operator Name  :
Scan Version 5.0.0.999
Parameter List :
Instrument  Cary 60
Instrument Version  2.00
Start (nm)  800.0
Stop (nm)  200.0
X Mode  Nanometers
Y Mode  Abs
UV-Vis Scan Rate (nm/min)  4800.000
UV-Vis Data Interval (nm)  1.00
UV-Vis Ave. Time (sec)  0.0125
Beam Mode  Dual Beam
Baseline Correction  On
Baseline Type  Baseline correction
Baseline File Name
Baseline Std Ref File Name
Cycle Mode  Off
Method Log     :
Method Name    :
Date/Time stamp: 18/03/2021 18:01:41
Method Modifications:
Common Interval nm Changed: 18/03/2021 18:02:08, Old:     5.00, New:     1.00
Baseline Correction Changed: 18/03/2021 18:02:08, Old:0, New:1
Storage Changed: 18/03/2021 18:02:08, Old:1, New:0
End Method Modifications
<Current Wavelength> , 231.0

