baseline,,wt,,dm,,
Wavelength (nm),Abs,Wavelength (nm),Abs,Wavelength (nm),Abs,
800.0085449,-0.0002215791319,800.0085449,0.01739276573,800.0085449,-0.01335351914,
799.0036011,0.000153634508,799.0036011,0.0177417472,799.0036011,-0.01278030965,
797.9984131,-0.0004244776792,797.9984131,0.01665747538,797.9984131,-0.01443237346,
796.9927979,-0.0005809583236,796.9927979,0.0173776783,796.9927979,-0.01464966498,
795.9866333,-0.001067002071,795.9866333,0.0162106324,795.9866333,-0.01502461359,
795.0148926,0.0009350233013,795.0148926,0.01757365093,795.0148926,-0.01365654729,
794.0080566,-0.0005557266413,794.0080566,0.01830320433,794.0080566,-0.01349226199,
793.0007935,-0.0001828199893,793.0007935,0.01791624725,793.0007935,-0.01432083175,
791.993103,0.0008040631074,791.993103,0.01824442856,791.993103,-0.01376083679,
790.9850464,-0.0004317186249,790.9850464,0.01769677177,790.9850464,-0.01355378795,
790.0113525,-0.001566688763,790.0113525,0.01814746857,790.0113525,-0.01476042252,
789.0025024,-0.0002052789787,789.0025024,0.01643753238,789.0025024,-0.01464876439,
787.9932251,0.0005406282726,787.9932251,0.01862413995,787.9932251,-0.01258541737,
786.9835815,-0.001245605061,786.9835815,0.01701905578,786.9835815,-0.01384674758,
786.0083618,-0.001318904455,786.0083618,0.01744646952,786.0083618,-0.01518032141,
784.9979248,0.001099940506,784.9979248,0.01943260618,784.9979248,-0.01335964445,
783.9870605,0.0002358852216,783.9870605,0.02002783492,783.9870605,-0.01171532925,
783.0106812,0.0005885277642,783.0106812,0.01993072033,783.0106812,-0.01231062971,
781.9990845,0.0006002183654,781.9990845,0.02074819617,781.9990845,-0.01305716299,
780.9869995,-0.00151639001,780.9869995,0.01693531498,780.9869995,-0.01484038215,
780.0095825,-0.0006513200351,780.0095825,0.01883576065,780.0095825,-0.01305887103,
778.9967651,-0.0007736116531,778.9967651,0.01941950433,778.9967651,-0.01331395656,
777.9835815,0.0004226386955,777.9835815,0.02060498856,777.9835815,-0.01191988122,
777.0048828,0.001261856756,777.0048828,0.02193086408,777.0048828,-0.01152701676,
775.9909668,-0.002478948329,775.9909668,0.01879867166,775.9909668,-0.01380502246,
775.0115967,-0.002250895603,775.0115967,0.01954025216,775.0115967,-0.01361003798,
773.9967651,-0.002643747255,773.9967651,0.01971203834,773.9967651,-0.01255629677,
773.0167236,0.0003410261706,773.0167236,0.02215671539,773.0167236,-0.01190481987,
772.0011597,0.0008079013787,772.0011597,0.02365588583,772.0011597,-0.01073996723,
770.9852905,0.0001965448464,770.9852905,0.02149942704,770.9852905,-0.01040269993,
770.0040283,0.001203707419,770.0040283,0.02365055494,770.0040283,-0.01005824003,
768.9873657,-0.001156854909,768.9873657,0.02097231708,768.9873657,-0.01349602547,
768.0054321,-0.0005554681411,768.0054321,0.02318952605,768.0054321,-0.01073557325,
766.9879761,-0.001107231597,766.9879761,0.02193032019,766.9879761,-0.01374503691,
766.0053101,0.0005691133556,766.0053101,0.02336882614,766.0053101,-0.01104371343,
764.9869995,0.0004138807999,764.9869995,0.02579360269,764.9869995,-0.009728795849,
764.0036011,-0.0003358699614,764.0036011,0.02249010652,764.0036011,-0.01221646089,
762.9846191,7.916650793E-005,762.9846191,0.02219112031,762.9846191,-0.01154204085,
762.0004272,-0.0002286164672,762.0004272,0.02339114435,762.0004272,-0.01154627558,
761.0158691,-0.0003933920234,761.0158691,0.02467183396,761.0158691,-0.009995457716,
759.9957886,0.0005273324787,759.9957886,0.02534077689,759.9957886,-0.009507913142,
759.010498,-0.0006152358837,759.010498,0.02448093146,759.010498,-0.01012647618,
757.989624,0.001110243378,757.989624,0.02486194298,757.989624,-0.01015818771,
757.0036621,7.68820064E-006,757.0036621,0.02446096577,757.0036621,-0.01141558308,
756.0172729,-0.0004707141197,756.0172729,0.02487386577,756.0172729,-0.01026412938,
754.9952393,-0.0009352876223,754.9952393,0.02538226917,754.9952393,-0.009651333094,
754.0081177,-0.0001277025876,754.0081177,0.02591652051,754.0081177,-0.009440694936,
752.9854126,7.947719132E-005,752.9854126,0.02613780089,752.9854126,-0.009820316918,
751.9976196,0.0007393368287,751.9976196,0.02613419853,751.9976196,-0.0101003265,
751.0093994,-0.001431462122,751.0093994,0.02547935024,751.0093994,-0.009928465821,
749.9855347,-0.0007827588706,749.9855347,0.02609054372,749.9855347,-0.008955518715,
748.9967041,-0.0008125248132,748.9967041,0.02707713656,748.9967041,-0.008915147744,
748.0074463,3.828703484E-005,748.0074463,0.02795379236,748.0074463,-0.008311108686,
746.9824219,-0.001963148825,746.9824219,0.02629893087,746.9824219,-0.009410399944,
745.9924927,0.0001515111071,745.9924927,0.02835496701,745.9924927,-0.008313598111,
745.0021362,0.0001456070895,745.0021362,0.02830017544,745.0021362,-0.007452662103,
744.0114746,0.0003802760039,744.0114746,0.02946344763,744.0114746,-0.007931079715,
742.9850464,0.0006604646915,742.9850464,0.03066303954,742.9850464,-0.005831609014,
741.9935913,6.376182137E-005,741.9935913,0.02880339697,741.9935913,-0.008103376254,
741.0018921,0.001624375698,741.0018921,0.03027610108,741.0018921,-0.007905559614,
740.0097656,-0.0003085546487,740.0097656,0.02895337343,740.0097656,-0.007961885072,
739.017334,-0.0008286471711,739.017334,0.02967096493,739.017334,-0.008039802313,
737.9890747,-0.0001498539059,737.9890747,0.0303343907,737.9890747,-0.007679983974,
736.9959106,0.0003526582732,736.9959106,0.03120238334,736.9959106,-0.006133242045,
736.0024414,-0.0001010988271,736.0024414,0.03004906885,736.0024414,-0.007154388819,
735.0085449,-0.0007670999621,735.0085449,0.03012516908,735.0085449,-0.006886434741,
734.0143433,-0.0008619751316,734.0143433,0.03073732741,734.0143433,-0.006842201576,
732.9842529,-0.000201346149,732.9842529,0.03149486333,732.9842529,-0.007152860984,
731.9893799,-0.0003744085261,731.9893799,0.03164382279,731.9893799,-0.006126555149,
730.9941406,0.0001068445345,730.9941406,0.03258692473,730.9941406,-0.005627082195,
729.9984741,0.0001257463446,729.9984741,0.03234753013,729.9984741,-0.006407425273,
729.0025024,-0.001054916997,729.0025024,0.03168617561,729.0025024,-0.006620661356,
728.0062866,-0.0007048720727,728.0062866,0.03154978156,728.0062866,-0.006516427733,
727.0096436,-0.0006836277898,727.0096436,0.03265191615,727.0096436,-0.006149627734,
726.0126343,-0.0006795959198,726.0126343,0.03332925215,726.0126343,-0.00565687567,
725.0152588,0.0007656307425,725.0152588,0.03387737647,725.0152588,-0.005843459629,
724.0177002,0.00036872091,724.0177002,0.0338935256,724.0177002,-0.00655834889,
722.9840088,-0.001288863597,722.9840088,0.03357833624,722.9840088,-0.005323767196,
721.9855957,-0.0005560368882,721.9855957,0.03358233348,721.9855957,-0.005627184175,
720.9869385,-0.0007161916001,720.9869385,0.03415231407,720.9869385,-0.005991924088,
719.987854,-2.800771472E-005,719.987854,0.03473509848,719.987854,-0.004729202483,
718.9885254,-0.0007021842757,718.9885254,0.03467756137,718.9885254,-0.005807804409,
717.9887695,-8.613996033E-005,717.9887695,0.03537637368,717.9887695,-0.005177069921,
716.9887085,0.0001058088383,716.9887085,0.0354982987,716.9887085,-0.004326649476,
715.9882813,0.0002054278448,715.9882813,0.03603035212,715.9882813,-0.004245499149,
714.9875488,-0.0003809778427,714.9875488,0.03460212052,714.9875488,-0.00607647514,
713.9865112,-0.001017936622,713.9865112,0.03507178277,713.9865112,-0.005171800498,
712.9850464,-0.000812059734,712.9850464,0.03569789976,712.9850464,-0.005361916963,
711.9833374,-0.000626144174,711.9833374,0.03585542366,711.9833374,-0.004787169863,
711.0170288,0.0003899400181,711.0170288,0.03596055135,711.0170288,-0.003976616543,
710.0146484,0.000190199964,710.0146484,0.03652741387,710.0146484,-0.004246575758,
709.0119019,0.0007767814677,709.0119019,0.03721764684,709.0119019,-0.004129771143,
708.0087891,-1.434058959E-005,708.0087891,0.03549046069,708.0087891,-0.005487644114,
707.0053711,-0.0001772826945,707.0053711,0.03694250807,707.0053711,-0.003548152279,
706.0015869,-0.0002429495071,706.0015869,0.03775991872,706.0015869,-0.004449448083,
704.9974976,-0.0006028797361,704.9974976,0.03777821735,704.9974976,-0.003959327936,
703.993103,0.0004598487285,703.993103,0.03856364638,703.993103,-0.004344282206,
702.9883423,3.714795457E-005,702.9883423,0.03792471439,702.9883423,-0.004413114395,
701.9832764,0.0001317277784,701.9832764,0.03862198442,701.9832764,-0.003885959741,
701.0137329,2.570552715E-005,701.0137329,0.03956243023,701.0137329,-0.002778854221,
700.0079956,-0.000211902603,700.0079956,0.03951304033,700.0079956,-0.003131858073,
699.0019531,-0.001451792661,699.0019531,0.03792626783,699.0019531,-0.004898780957,
697.9956055,-0.0006074293051,697.9956055,0.03928489611,697.9956055,-0.00362650631,
696.9887695,-0.0007510270225,696.9887695,0.03938380256,696.9887695,-0.004962304607,
696.0177612,-0.001568906941,696.0177612,0.03802568465,696.0177612,-0.00399015937,
695.0103149,0.00111003581,695.0103149,0.04103825241,695.0103149,-0.003079632763,
694.0026855,-0.0002731663408,694.0026855,0.03954003006,694.0026855,-0.003686930984,
692.9946289,-0.0007471507997,692.9946289,0.03922332451,692.9946289,-0.003771265037,
691.9862671,-0.0004080299695,691.9862671,0.03947006166,691.9862671,-0.003600115888,
691.0135498,7.510168507E-005,691.0135498,0.03995679691,691.0135498,-0.003588717431,
690.0046387,-8.748575783E-005,690.0046387,0.04138862714,690.0046387,-0.003093306441,
688.9952393,-9.2868926E-005,688.9952393,0.04029266909,688.9952393,-0.003283923957,
687.9856567,0.0002639358572,687.9856567,0.0422674641,687.9856567,-0.003037786111,
687.0116577,-0.001069119549,687.0116577,0.04054575413,687.0116577,-0.004729407374,
686.0014038,-0.0008172272355,686.0014038,0.04188969359,686.0014038,-0.003895349335,
684.9907837,-0.001642048708,684.9907837,0.04155338556,684.9907837,-0.004269338213,
684.0159302,-0.0001937391353,684.0159302,0.04318402335,684.0159302,-0.001924029319,
683.0046997,0.000107440057,683.0046997,0.04312266782,683.0046997,-0.002873445163,
681.993103,0.0002817306959,681.993103,0.04431256652,681.993103,-0.001832582289,
681.017395,-0.0007740251021,681.017395,0.04302730784,681.017395,-0.002808020683,
680.005127,-0.0007796581485,680.005127,0.04348320141,680.005127,-0.002808226505,
678.9926758,-0.001425579423,678.9926758,0.04272319004,678.9926758,-0.002603145083,
678.0159302,-0.0004089610011,678.0159302,0.04408750683,678.0159302,-0.002179813804,
677.0028076,-0.001248908928,677.0028076,0.04328333586,677.0028076,-0.00184284139,
675.9893188,0.0006020328728,675.9893188,0.04520478472,675.9893188,-0.001313123619,
675.0117188,-0.0005781146465,675.0117188,0.04512149096,675.0117188,-0.001882432029,
673.9976196,0.0008615365368,673.9976196,0.04662174359,673.9976196,0.0004593045451,
672.9832153,-0.0003849607601,672.9832153,0.04537717253,672.9832153,-0.001914906083,
672.0046997,-0.001223509549,672.0046997,0.04562941566,672.0046997,-0.001780664315,
670.989624,-0.0008950938936,670.989624,0.04652846605,670.989624,-0.001008019666,
670.0105591,0.001006680424,670.0105591,0.0467861928,670.0105591,-0.0007726297481,
668.994873,0.0005846914719,668.994873,0.04787838832,668.994873,-0.0002078663383,
668.0151367,-0.0008086491725,668.0151367,0.04628120363,668.0151367,-0.000402495556,
666.9988403,-0.0007907690015,666.9988403,0.04752857238,666.9988403,0.0005086204619,
665.9822998,-0.0002064691653,665.9822998,0.04856752232,665.9822998,0.0007698057452,
665.0016479,-0.0009472210659,665.0016479,0.04698741436,665.0016479,-0.000574753969,
663.984436,-0.0007479776978,663.984436,0.04834797233,663.984436,0.0006150717963,
663.0032349,0.001204745728,663.0032349,0.04958946258,663.0032349,0.001084291958,
661.9853516,-0.000446820748,661.9853516,0.04936095327,661.9853516,0.0006832277868,
661.0036011,-0.0007401218754,661.0036011,0.05014067143,661.0036011,0.00186769641,
659.9850464,0.0003186695976,659.9850464,0.0499054268,659.9850464,0.001461908687,
659.0027466,-0.0001695200044,659.0027466,0.04837505519,659.0027466,0.0003113903804,
657.9836426,-0.0007106094272,657.9836426,0.04936330393,657.9836426,0.0006481503369,
657.0007324,-0.001063077012,657.0007324,0.0493792817,657.0007324,0.00170659367,
656.0174561,0.0003705862619,656.0174561,0.05176961049,656.0174561,0.002391082002,
654.9974365,-0.000609290495,654.9974365,0.05138226226,654.9974365,0.001543862047,
654.0136108,0.000902701111,654.0136108,0.05186565593,654.0136108,0.002787161851,
652.993042,-0.0006526641082,652.993042,0.05226003006,652.993042,0.002386136679,
652.0085449,0.0001333073014,652.0085449,0.05101465061,652.0085449,0.002046804409,
650.9873657,-0.0006474429392,650.9873657,0.05240515992,650.9873657,0.002688043052,
650.0023804,5.967125617E-005,650.0023804,0.05310216174,650.0023804,0.002943297382,
649.0170898,-0.001224748557,649.0170898,0.05356228724,649.0170898,0.003200814128,
647.9949951,0.001626792131,647.9949951,0.05491237342,647.9949951,0.005268769339,
647.0090942,0.0006723127444,647.0090942,0.05434469134,647.0090942,0.003047609935,
645.9864502,-0.0002642153413,645.9864502,0.05364560708,645.9864502,0.003284791484,
644.9998779,-1.604900353E-005,644.9998779,0.0547516346,644.9998779,0.002822568873,
644.0131836,-0.0001686402247,644.0131836,0.05444799736,644.0131836,0.002601888962,
642.989624,0.0007972166059,642.989624,0.05537959933,642.989624,0.003983111586,
642.0022583,3.88289692E-007,642.0022583,0.05440283939,642.0022583,0.004412209149,
641.0147095,-0.0001231997303,641.0147095,0.05574562773,641.0147095,0.002811730141,
639.9902344,-0.00120972516,639.9902344,0.0540128164,639.9902344,0.003300597891,
639.0020142,-0.0001288412313,639.0020142,0.0547827594,639.0020142,0.002870433964,
638.0136108,-0.0005323033547,638.0136108,0.05604834482,638.0136108,0.00477273576,
636.9881592,0.000637988036,636.9881592,0.05729459226,636.9881592,0.003890954424,
635.9991455,-0.0004715932882,635.9991455,0.05741680041,635.9991455,0.004658405669,
635.0098877,-0.001001769677,635.0098877,0.05726062506,635.0098877,0.004485880956,
633.9835815,-0.000948460889,633.9835815,0.05680527166,633.9835815,0.004032254685,
632.9937744,-0.0001709172939,632.9937744,0.05841301382,632.9937744,0.005236306228,
632.0036011,0.0005091388011,632.0036011,0.0596678555,632.0036011,0.005165048409,
631.0131226,-0.0009647331899,631.0131226,0.05866117775,631.0131226,0.004369324539,
629.9857788,0.001390566002,629.9857788,0.06040303409,629.9857788,0.006501089316,
628.994751,-0.0007209467585,628.994751,0.06036543474,628.994751,0.004831810016,
628.003418,-0.0008557231049,628.003418,0.0605273433,628.003418,0.005203374196,
627.0119019,-0.0001804912317,627.0119019,0.05996883288,627.0119019,0.004278209526,
625.9833984,-0.001174720004,625.9833984,0.06000425667,625.9833984,0.004988551605,
624.9912109,4.985923806E-005,624.9912109,0.06072009355,624.9912109,0.00526007032,
623.9988403,0.0004922676017,623.9988403,0.06134008616,623.9988403,0.006223069504,
623.0061646,-0.001325149788,623.0061646,0.06034369022,623.0061646,0.004265400115,
622.0132446,0.0003048624785,622.0132446,0.06069348007,622.0132446,0.005786828231,
620.9832153,0.001067372388,620.9832153,0.06248079613,620.9832153,0.007225923706,
619.9897461,0.0004327441857,619.9897461,0.06309860945,619.9897461,0.006951936986,
618.9959717,8.167790656E-005,618.9959717,0.0628060475,618.9959717,0.006609650794,
618.0018921,-7.10770546E-005,618.0018921,0.06292146444,618.0018921,0.007097946946,
617.0076294,-0.0002120578429,617.0076294,0.06314812601,617.0076294,0.00684686657,
616.0130615,-0.0005495736259,616.0130615,0.06315111369,616.0130615,0.006624080241,
615.0182495,-0.001164961373,615.0182495,0.06481748819,615.0182495,0.007995261811,
613.9862061,-0.0005145669566,613.9862061,0.06517577171,613.9862061,0.00905093085,
612.9907837,2.531721475E-005,612.9907837,0.06624489278,612.9907837,0.009474352002,
611.9951782,0.0005017527146,611.9951782,0.06627034396,611.9951782,0.01016532071,
610.9992065,-0.0002590412623,610.9992065,0.0673609972,610.9992065,0.009941303171,
610.0030518,-0.000606705551,610.0030518,0.06650017202,610.0030518,0.01064471435,
609.0065308,-0.0003865642648,609.0065308,0.06769255549,609.0065308,0.01124302018,
608.0097656,-0.0004663699656,608.0097656,0.06904169172,608.0097656,0.01249802858,
607.0128174,0.000217626075,607.0128174,0.07077323645,607.0128174,0.01355712954,
606.0154419,-0.001119521796,606.0154419,0.07072665542,606.0154419,0.01398478169,
605.0179443,-8.743399667E-005,605.0179443,0.07114406675,605.0179443,0.0153739946,
603.9832153,-0.0003535101714,603.9832153,0.0718415603,603.9832153,0.01542447042,
602.9850464,-0.0002306344977,602.9850464,0.07301046699,602.9850464,0.01647089794,
601.9867554,-0.0004468724655,601.9867554,0.07334437221,601.9867554,0.01864567585,
600.9880981,0.0002101413556,600.9880981,0.07560622692,600.9880981,0.02004147135,
599.9892578,-0.001337433816,599.9892578,0.07631938159,599.9892578,0.01941363141,
598.9900513,-0.0002847558353,598.9900513,0.07817079872,598.9900513,0.02216180786,
597.9907227,-0.0004002714122,597.9907227,0.07993805408,597.9907227,0.02388285287,
596.9910278,-0.0001531661546,596.9910278,0.0801339224,596.9910278,0.02552670427,
595.9910889,0.0003466997005,595.9910889,0.08206020296,595.9910889,0.02748701721,
594.9909058,-0.000148042498,594.9909058,0.08465778083,594.9909058,0.02948937938,
593.9904175,-0.002283239039,593.9904175,0.08447999507,593.9904175,0.03056045994,
592.9896851,-0.0007781594759,592.9896851,0.08765824139,592.9896851,0.03308321536,
591.9887085,-0.0003533549898,591.9887085,0.08975198865,591.9887085,0.03640846536,
590.9874878,0.0005468486925,590.9874878,0.09243493527,590.9874878,0.03952647746,
589.9860229,-0.0006243864191,589.9860229,0.09444008023,589.9860229,0.04124733433,
588.9842529,6.652745014E-006,588.9842529,0.09732680768,588.9842529,0.04470814392,
587.9821777,-0.00100982748,587.9821777,0.09983817488,587.9821777,0.04727921262,
587.0170898,-0.0006478565047,587.0170898,0.1044214666,587.0170898,0.0519933477,
586.0145264,-0.0002111781505,586.0145264,0.1085293517,586.0145264,0.05573223531,
585.0117798,-0.0005965722958,585.0117798,0.1125891209,585.0117798,0.05928138271,
584.008667,0.0008772030124,584.008667,0.1170017272,584.008667,0.06410840154,
583.0054321,-0.0005735647865,583.0054321,0.1203724816,583.0054321,0.06750863045,
582.0018921,-0.0001753679098,582.0018921,0.1261035055,582.0018921,0.07254662365,
580.9979858,0.0001213962678,580.9979858,0.1305408925,580.9979858,0.07774246484,
579.9940186,-0.0002136619878,579.9940186,0.1350903809,579.9940186,0.08177196234,
578.9896851,-0.0008583065937,578.9896851,0.1411138773,578.9896851,0.08750666678,
577.9851685,-1.10272822E-005,577.9851685,0.1455482841,577.9851685,0.09219471365,
577.0174561,-0.0004366837675,577.0174561,0.1493606716,577.0174561,0.09598401934,
576.0124512,-0.0007423959323,576.0124512,0.1540504545,576.0124512,0.100419499,
575.0070801,-0.0003192119766,575.0070801,0.158934176,575.0070801,0.1045684218,
574.0015259,-0.000346164481,574.0015259,0.1612534523,574.0015259,0.1082193777,
572.9956665,-0.0009819862898,572.9956665,0.1648519784,572.9956665,0.1113338321,
571.989563,0.0003660264774,571.989563,0.1681594998,571.989563,0.1142779738,
570.9832764,0.000561933557,570.9832764,0.1702267677,570.9832764,0.1161450967,
570.0139771,-0.0009118331363,570.0139771,0.1709091067,570.0139771,0.1176803857,
569.0071411,-0.0002218378504,569.0071411,0.1720569581,569.0071411,0.1196538061,
568.000061,-0.0004878317413,568.000061,0.1724401414,568.000061,0.1202375963,
566.9927368,7.714086678E-006,566.9927368,0.1720853895,566.9927368,0.1198560447,
565.9851685,-0.0003705289564,565.9851685,0.1721213609,565.9851685,0.1193402261,
565.0146484,-0.0003843400627,565.0146484,0.1699201018,565.0146484,0.1186446473,
564.0065918,0.0003122452181,564.0065918,0.1699430346,564.0065918,0.1193791702,
562.998291,0.0004180783581,562.998291,0.1699127555,562.998291,0.117630899,
561.9897461,-0.001753181918,561.9897461,0.1662915498,561.9897461,0.1155071929,
561.0182495,3.546392236E-006,561.0182495,0.1654912084,561.0182495,0.1149969772,
560.0092773,-0.0008666769718,560.0092773,0.1645486951,560.0092773,0.1135791168,
558.999939,-0.0001262534061,558.999939,0.1629277319,558.999939,0.1117272824,
557.9904175,0.0002863932168,557.9904175,0.1628604978,557.9904175,0.1121368408,
557.0180054,4.931557123E-005,557.0180054,0.1611889899,557.0180054,0.1102472618,
556.0079956,-0.001254277769,556.0079956,0.1600356847,556.0079956,0.1088152304,
554.9977417,-0.0006963951746,554.9977417,0.1602194458,554.9977417,0.1089138463,
553.9872437,-0.001228207489,553.9872437,0.1606547832,553.9872437,0.1084143072,
553.013916,0.000297143124,553.013916,0.1602640748,553.013916,0.1082923785,
552.0029907,0.0002020351967,552.0029907,0.1612600237,552.0029907,0.1083270609,
550.9916992,-0.0003374219232,550.9916992,0.1617659628,550.9916992,0.1087526083,
550.0177002,-0.0005007082946,550.0177002,0.1633972675,550.0177002,0.1093197241,
549.0059814,-0.0001514065225,549.0059814,0.165713653,549.0059814,0.1109195203,
547.9940796,0.0006609573029,547.9940796,0.1672030091,547.9940796,0.1113208234,
546.9818726,-0.0008059620159,546.9818726,0.1673605293,546.9818726,0.1122255921,
546.006958,-8.764104859E-005,546.006958,0.1691934913,546.006958,0.1133142784,
544.9943237,0.0001577000658,544.9943237,0.1723348051,544.9943237,0.1147181913,
543.9814453,-0.001205698121,543.9814453,0.1746023744,543.9814453,0.1165510267,
543.0057983,2.021741238E-005,543.0057983,0.1755359173,543.0057983,0.116731301,
541.9924316,-0.0006195268361,541.9924316,0.1775031835,541.9924316,0.1180545241,
541.0164185,0.0002430854947,541.0164185,0.1763744354,541.0164185,0.1177320853,
540.0025635,-0.0008639902226,540.0025635,0.1782593876,540.0025635,0.1186056957,
538.9884644,-0.001037047012,538.9884644,0.1802409738,538.9884644,0.1195341721,
538.0116577,-0.001756481943,538.0116577,0.1820459217,538.0116577,0.1212302819,
536.9971924,-0.0008059103275,536.9971924,0.1816462278,536.9971924,0.1205662787,
535.9824219,5.268114182E-005,535.9824219,0.1822562218,535.9824219,0.1206810027,
535.0050049,-2.645465429E-005,535.0050049,0.1835291684,535.0050049,0.1206391007,
533.9897461,0.0001614807989,533.9897461,0.1835809946,533.9897461,0.1205602363,
533.0119019,-0.0002088495385,533.0119019,0.1811550558,533.0119019,0.1186265498,
531.9962158,0.0003362335265,531.9962158,0.1816071868,531.9962158,0.1185884476,
531.0179443,-0.0002051754855,531.0179443,0.1821329296,531.0179443,0.1172400713,
530.00177,-0.001493947115,530.00177,0.1815802455,530.00177,0.1157694533,
528.9854126,-0.0002718728792,528.9854126,0.1796080172,528.9854126,0.1140922755,
528.0064697,0.001109931967,528.0064697,0.177127704,528.0064697,0.1122507304,
526.989563,2.511011553E-005,526.989563,0.175878942,526.989563,0.1099407002,
526.0101929,0.0009304576088,526.0101929,0.1762496978,526.0101929,0.1101882756,
524.9929199,-0.0004043059016,524.9929199,0.1729076356,524.9929199,0.1071671322,
524.0130615,0.0002144405298,524.0130615,0.1723254472,524.0130615,0.1055162176,
522.9953003,-0.0007033214206,522.9953003,0.1697004586,522.9953003,0.1009294838,
522.0150146,-0.0001336545683,522.0150146,0.1692721397,522.0150146,0.1011846513,
520.9968262,-0.0005129639176,520.9968262,0.168199718,520.9968262,0.09924783558,
520.0161133,-4.333095058E-005,520.0161133,0.1673177183,520.0161133,0.0965616256,
518.9974976,-0.0007575906347,518.9974976,0.165474683,518.9974976,0.09477572143,
518.0163574,-0.001143636415,518.0163574,0.1628345847,518.0163574,0.09147848189,
516.9972534,-0.0004834360443,516.9972534,0.1625522077,516.9972534,0.09064065665,
516.015686,-0.0004714381357,516.015686,0.1613752395,516.015686,0.08892679214,
514.9960327,-0.0002239076712,514.9960327,0.1611551195,514.9960327,0.08805321902,
514.0140991,0.0002255771251,514.0140991,0.1608299315,514.0140991,0.08678016812,
512.9941406,-0.001118334127,512.9941406,0.1583425999,512.9941406,0.08425427973,
512.0117188,-0.0004357010766,512.0117188,0.1582833081,512.0117188,0.08278113604,
510.9913025,-0.001184426714,510.9913025,0.1565483212,510.9913025,0.08086200804,
510.0083923,-0.0008003809489,510.0083923,0.1566168219,510.0083923,0.07949861884,
508.9875793,-0.0003285756975,508.9875793,0.1560186744,508.9875793,0.0796778053,
508.0043335,-0.0009723266703,508.0043335,0.1553518325,508.0043335,0.07766664773,
506.9829712,-0.0002700619807,506.9829712,0.1555043459,506.9829712,0.07753498852,
505.9992981,-7.076647307E-005,505.9992981,0.1560408175,505.9992981,0.0767802,
505.0153198,0.0001991864265,505.0153198,0.1556733847,505.0153198,0.07721821964,
503.9934387,-0.0002057964593,503.9934387,0.1555755287,503.9934387,0.07534150779,
503.0091248,0.0003899400181,503.0091248,0.1561172307,503.0091248,0.07596427947,
501.9866943,-0.0007976421039,501.9866943,0.1553421766,501.9866943,0.07533017546,
501.0019531,0.0007737992564,501.0019531,0.156785965,501.0019531,0.07573459297,
500.0170593,-0.0006294527557,500.0170593,0.1559891701,500.0170593,0.07514280826,
498.993988,-0.0002398966608,498.993988,0.1573348343,498.993988,0.07524351776,
498.008606,-0.0003003286838,498.008606,0.1573638022,498.008606,0.07465230674,
496.9851074,-0.0004002714122,496.9851074,0.1570718139,496.9851074,0.07441671193,
495.9993591,0.0008336288156,495.9993591,0.157069698,495.9993591,0.0747930631,
495.0133972,-0.00121148047,495.0133972,0.157956019,495.0133972,0.07423086464,
493.9892883,-0.0005356643815,493.9892883,0.1595014781,493.9892883,0.07539068162,
493.0028992,-0.0007845676155,493.0028992,0.1605313718,493.0028992,0.07592675835,
492.0163269,-0.001343472512,492.0163269,0.160590291,492.0163269,0.07556491345,
490.9915771,-0.0008502460551,490.9915771,0.1602470428,490.9915771,0.0765452981,
490.0046082,-0.0001973097969,490.0046082,0.1620550454,490.0046082,0.07717264444,
489.0173645,-9.721681272E-005,489.0173645,0.1642052531,489.0173645,0.07829341292,
487.9919739,-0.0004867974494,487.9919739,0.1639193445,487.9919739,0.07815924287,
487.0043945,-0.002003346803,487.0043945,0.1629771888,487.0043945,0.0780641064,
486.0166016,-0.0003140902845,486.0166016,0.1657786816,486.0166016,0.07976262271,
484.9906311,0.0002655417775,484.9906311,0.1691942066,484.9906311,0.08141321689,
484.0023804,-0.0009184976225,484.0023804,0.1667996794,484.0023804,0.08080675453,
483.0140076,-0.0008207927458,483.0140076,0.1668942124,483.0140076,0.08046974242,
481.9874268,-0.0006672416348,481.9874268,0.1691776961,481.9874268,0.08161271363,
480.9985657,-0.001288863597,480.9985657,0.1709478647,480.9985657,0.08377438784,
480.009613,-0.0002391722519,480.009613,0.1737178415,480.009613,0.085844405,
478.9822998,-0.0005713414866,478.9822998,0.1742888987,478.9822998,0.08654251695,
477.9929199,0.000128931264,477.9929199,0.1764157116,477.9929199,0.0879201144,
477.0033264,-0.00232953555,477.0033264,0.1772697121,477.0033264,0.08960735053,
476.0135498,0.0005948525504,476.0135498,0.1796213984,476.0135498,0.0906457305,
474.9854736,-0.0002505556622,474.9854736,0.1811333746,474.9854736,0.09363339096,
473.9953308,0.0001492064621,473.9953308,0.184011057,473.9953308,0.09575047344,
473.0049133,-0.0002218378504,473.0049133,0.1862679273,473.0049133,0.09751561284,
472.0143738,-0.0002543845621,472.0143738,0.1881153882,472.0143738,0.100438416,
470.9855347,-0.0001394512074,470.9855347,0.1911217272,470.9855347,0.1033627391,
469.9945374,-0.0004818328889,469.9945374,0.1942518204,469.9945374,0.1067677885,
469.003418,0.0002525651653,469.003418,0.1974121332,469.003418,0.1101673245,
468.012085,-0.001444878289,468.012085,0.1999368519,468.012085,0.1131355762,
466.9823608,0.0002027344453,466.9823608,0.2036546916,466.9823608,0.1174073666,
465.9906006,-0.0002526253229,465.9906006,0.2076600045,465.9906006,0.1216938496,
464.9987183,-0.0006824388984,464.9987183,0.2109209597,464.9987183,0.1256276071,
464.0065613,2.280613626E-005,464.0065613,0.2149236947,464.0065613,0.1289272457,
463.0142822,0.0007474271115,463.0142822,0.2199282795,463.0142822,0.1348364651,
461.9836731,-0.0006117720623,461.9836731,0.2251217216,461.9836731,0.1402334571,
460.9909668,-0.0004997257493,460.9909668,0.2303692997,460.9909668,0.1460910589,
459.9980774,-0.0008967471658,459.9980774,0.2357524782,459.9980774,0.1519349366,
459.0050354,-0.001045723911,459.0050354,0.2399269044,459.0050354,0.1566668302,
458.0117798,-0.001531351241,458.0117798,0.2471565008,458.0117798,0.1642866731,
457.0183105,-0.001566482475,457.0183105,0.2537979782,457.0183105,0.1718718112,
455.9865112,-0.0001040491261,455.9865112,0.2627535462,455.9865112,0.1807427704,
454.9926758,-1.915557505E-006,454.9926758,0.2699112296,454.9926758,0.1900969744,
453.9986877,0.0005368960556,453.9986877,0.2786262631,453.9986877,0.1993245631,
453.0045166,-6.978296733E-005,453.0045166,0.2865053713,453.0045166,0.208355844,
452.0101013,-0.00111601036,452.0101013,0.2947080135,452.0101013,0.2169557363,
451.0155945,0.0001412827114,451.0155945,0.3031186163,451.0155945,0.2287472188,
449.9825745,-0.001389353187,449.9825745,0.3140110373,449.9825745,0.2425335348,
448.9876404,-0.0006628477131,448.9876404,0.3238125741,448.9876404,0.2557871044,
447.9924927,-0.0007193961646,447.9924927,0.3355961442,447.9924927,0.2697411478,
446.9972534,-0.0005308038089,446.9972534,0.3465177119,446.9972534,0.2834013999,
446.00177,-0.0004444416845,446.00177,0.3606059253,446.00177,0.3015652895,
445.0061035,-0.0002737354953,445.0061035,0.3746656477,445.0061035,0.3206396699,
444.0102234,0.0001275329996,444.0102234,0.3923995495,444.0102234,0.3403131664,
443.0142212,-0.0002057964593,443.0142212,0.4091294408,443.0142212,0.3589119315,
442.0180664,-0.0004444416845,442.0180664,0.4256309569,442.0180664,0.3837698698,
440.9833374,-0.001194288139,440.9833374,0.4470799267,440.9833374,0.41488415,
439.9867554,-0.000880007341,439.9867554,0.4693085253,439.9867554,0.4420433939,
438.9900208,-1.10272822E-005,438.9900208,0.4957918525,438.9900208,0.4705862105,
437.9930725,-0.0009858603589,437.9930725,0.527130723,437.9930725,0.507024169,
436.9959106,-0.0007804333582,436.9959106,0.5569018722,436.9959106,0.5414518118,
435.9986267,-1.138981133E-006,435.9986267,0.5945980549,435.9986267,0.581750989,
435.0012207,0.0003227885172,435.0012207,0.6275116801,435.0012207,0.6280081272,
434.0035706,-0.001005075406,434.0035706,0.6627317071,434.0035706,0.6657965183,
433.0057068,-0.001148851588,433.0057068,0.7053397894,433.0057068,0.7112854123,
432.007782,-0.0008555680979,432.007782,0.75321275,432.007782,0.7606642246,
431.0095825,-7.951441512E-005,431.0095825,0.8042631149,431.0095825,0.8163505793,
430.0112305,-0.001573859132,430.0112305,0.8472131491,430.0112305,0.8670263886,
429.0127258,-3.42716703E-005,429.0127258,0.9058181643,429.0127258,0.9212029576,
428.0140381,-0.000271769386,428.0140381,0.9617243409,428.0140381,0.9748262167,
427.0151672,-0.0002654053678,427.0151672,1.011107922,427.0151672,1.024768353,
426.0160522,-0.001210551127,426.0160522,1.069017529,426.0160522,1.076862216,
425.0168762,0.0003908468643,425.0168762,1.112098217,425.0168762,1.125064969,
424.0175171,-0.0005219097948,424.0175171,1.155097246,424.0175171,1.162719607,
423.0179749,0.0002981015423,423.0179749,1.192629814,423.0179749,1.201640368,
422.0181885,0.0001407648233,422.0181885,1.229825139,422.0181885,1.231402516,
421.0182495,-0.0001336545683,421.0182495,1.252099633,421.0182495,1.256027699,
420.018219,0.0002532126964,420.018219,1.265990734,420.018219,1.271086216,
419.0179138,-2.93019275E-005,419.0179138,1.272894502,419.0179138,1.27773726,
418.0174866,-5.321828939E-005,418.0174866,1.273638129,418.0174866,1.277194619,
417.0169373,0.001604083576,417.0169373,1.270043731,417.0169373,1.264817119,
416.0161743,0.0009227789706,416.0161743,1.249096036,416.0161743,1.245692134,
415.0151978,0.0002159944561,415.0151978,1.227855802,415.0151978,1.215667129,
414.0140991,-0.0006283154362,414.0140991,1.204058647,414.0140991,1.185715675,
413.0128479,-0.0007284411695,413.0128479,1.169809699,413.0128479,1.147956371,
412.0114136,-0.001109555364,412.0114136,1.134245753,412.0114136,1.11577642,
411.0097961,0.0004112638417,411.0097961,1.093006849,411.0097961,1.06830132,
410.0080261,-1.190752869E-006,410.0080261,1.057344675,410.0080261,1.029329062,
409.006073,-0.0002289786789,409.006073,1.018147349,409.006073,0.9866670966,
408.0039063,8.398220234E-005,408.0039063,0.9718325734,408.0039063,0.9423285127,
407.0016785,0.001522638369,407.0016785,0.9404435158,407.0016785,0.9064806104,
405.9992676,-0.000318332488,405.9992676,0.9021892548,405.9992676,0.8640310764,
404.9966431,-0.0006783553399,404.9966431,0.8710138202,404.9966431,0.8263481855,
403.9938354,-0.000613736629,403.9938354,0.8385611176,403.9938354,0.7931326032,
402.9909058,-0.0005072240019,402.9909058,0.8100374341,402.9909058,0.7581344247,
401.9878235,-0.001992833801,401.9878235,0.7791327238,401.9878235,0.7254624367,
400.9845276,-3.696358908E-005,400.9845276,0.7542845011,400.9845276,0.6951631904,
399.9810791,-0.0001986035059,399.9810791,0.7298386693,399.9810791,0.6698266864,
399.0161133,-0.0003573899157,399.0161133,0.7068068385,399.0161133,0.6476783156,
398.0123596,-0.001209415379,398.0123596,0.6867813468,398.0123596,0.6217033267,
397.0084534,0.001011350658,397.0084534,0.6688866019,397.0084534,0.6009030938,
396.004364,-0.001068809652,396.004364,0.6475105286,396.004364,0.5772212148,
395.0001526,0.0003747834126,395.0001526,0.6322792172,395.0001526,0.5586726665,
393.9957581,0.0002040811523,393.9957581,0.6186233163,393.9957581,0.5432440639,
392.9911499,0.0002018280065,392.9911499,0.6008606553,392.9911499,0.5273471475,
391.9864502,9.791176853E-005,391.9864502,0.5886628628,391.9864502,0.5080775023,
390.9815369,-0.000924748776,390.9815369,0.5742726326,390.9815369,0.4893474579,
390.0151672,0.0007568659494,390.0151672,0.5643811822,390.0151672,0.4806023836,
389.0100098,-0.000265508861,389.0100098,0.5507935882,389.0100098,0.466008544,
388.0046387,0.0004249447957,388.0046387,0.5427348018,388.0046387,0.4530915916,
386.9991455,-0.001342130592,386.9991455,0.5302984715,386.9991455,0.4396253526,
385.9934692,-0.0006949995877,385.9934692,0.5214183331,385.9934692,0.4293107092,
384.9876404,-0.0003202466469,384.9876404,0.5161421895,384.9876404,0.4201291502,
383.9816589,0.0003376583627,383.9816589,0.5091174245,383.9816589,0.413156122,
383.0142212,-0.0007815185818,383.0142212,0.5030806661,383.0142212,0.4036996663,
382.0079041,0.0003740838729,382.0079041,0.4995263815,382.0079041,0.3977909684,
381.0014954,0.0004539405345,381.0014954,0.4970162213,381.0014954,0.3928667605,
379.994873,-0.001314620371,379.994873,0.4938961267,379.994873,0.3875471652,
378.9881287,-0.0009041868616,378.9881287,0.4925347567,378.9881287,0.3862569034,
377.9812012,0.0002416350617,377.9812012,0.4940677583,377.9812012,0.3844659328,
377.0128784,0.0002410911547,377.0128784,0.4933226109,377.0128784,0.3815355003,
376.0056763,-0.0004214261135,376.0056763,0.4933823645,376.0056763,0.382466197,
374.9983215,0.0002738822368,374.9983215,0.495652914,374.9983215,0.3835585713,
373.9908142,3.960571121E-006,373.9908142,0.4985771477,373.9908142,0.3846761286,
372.9831238,0.001228030538,372.9831238,0.501091063,372.9831238,0.385792166,
372.0140686,-0.001414123573,372.0140686,0.5046352148,372.0140686,0.3885132074,
371.006073,-0.0004783162731,371.006073,0.5085945129,371.006073,0.3899962902,
369.9979858,-0.001197540783,369.9979858,0.5127936006,369.9979858,0.3943246603,
368.9896851,-0.0008227046928,368.9896851,0.5169039965,368.9896851,0.3971285224,
367.9812927,-0.0006668280694,367.9812927,0.5237662196,367.9812927,0.4017632902,
367.0115051,-0.0006541114999,367.0115051,0.5281569362,367.0115051,0.4045712352,
366.0028076,-0.0003734257189,366.0028076,0.5334024429,366.0028076,0.4081492424,
364.9939575,0.0008541444549,364.9939575,0.5391426682,364.9939575,0.4121306837,
363.9848938,-0.0001093803294,363.9848938,0.5437319279,363.9848938,0.4148665667,
363.0145264,-4.115673801E-005,363.0145264,0.5494135618,363.0145264,0.4181893468,
362.005249,-0.003412924707,362.005249,0.5537508726,362.005249,0.4192064404,
360.9957886,-0.002459643874,360.9957886,0.5541782379,360.9957886,0.4186301827,
359.9861755,-0.000239741421,359.9861755,0.559394002,359.9861755,0.4218240082,
359.0152893,-0.001313794521,359.0152893,0.5633126497,359.0152893,0.4207797348,
358.0054016,-0.001089621917,358.0054016,0.567052424,358.0054016,0.4208704829,
356.9953308,-0.002208041959,356.9953308,0.5655266047,356.9953308,0.4184966683,
355.985199,0.0003839550482,355.985199,0.5689523816,355.985199,0.4172390997,
355.0137024,0.0009934740374,355.0137024,0.567771256,355.0137024,0.4129005075,
354.0032349,0.0007859097677,354.0032349,0.5680849552,354.0032349,0.4109083712,
352.9926453,-0.001149987569,352.9926453,0.5655592084,352.9926453,0.4048063755,
351.9818726,-0.000598795421,351.9818726,0.5662305355,351.9818726,0.3998193443,
351.0098572,-0.0003884781327,351.0098572,0.5646557808,351.0098572,0.3937415779,
349.9988098,-0.0003604936646,349.9988098,0.5604106188,349.9988098,0.3891073763,
348.9876404,-0.0006139951292,348.9876404,0.5579890609,348.9876404,0.3812503517,
348.0152283,-0.0001476802281,348.0152283,0.5552895069,348.0152283,0.3758731186,
347.0037842,-0.0001293070527,347.0037842,0.551641345,347.0037842,0.3688962162,
345.9921875,0.0003322440316,345.9921875,0.5477377176,345.9921875,0.3623156548,
345.0193481,0.0004305934999,345.0193481,0.545769155,345.0193481,0.3549725413,
344.0074768,0.0003163122747,344.0074768,0.5422350168,344.0074768,0.3491590321,
342.9954834,-0.0007838958409,342.9954834,0.5375956893,342.9954834,0.340444833,
341.9833069,-0.0006346741575,341.9833069,0.5350371003,341.9833069,0.3313631415,
341.0099487,-0.000195343353,341.0099487,0.5330447555,341.0099487,0.3253726065,
339.9975281,-0.0005268221721,339.9975281,0.5295269489,339.9975281,0.3183565438,
338.9849548,-0.0001993797196,338.9849548,0.526406765,338.9849548,0.3098547757,
338.0112,-0.00161063741,338.0112,0.5204496384,338.0112,0.301679194,
336.9983215,-0.001949233119,336.9983215,0.5180000067,336.9983215,0.2953931987,
335.9853821,-0.0006682754611,335.9853821,0.5163111687,335.9853821,0.2862336934,
335.0112305,-0.000384081417,335.0112305,0.5139582753,335.0112305,0.2794761062,
333.9979858,-0.0009648364503,333.9979858,0.5107513666,333.9979858,0.2739014626,
332.9846191,-0.0004228226026,332.9846191,0.5076703429,332.9846191,0.2651579976,
332.0100708,-0.0008142817533,332.0100708,0.5037577748,332.0100708,0.2570365965,
330.9964294,0.0001683690789,330.9964294,0.5006276965,330.9964294,0.2501260042,
329.9826355,0.000247281394,329.9826355,0.4975148737,329.9826355,0.2451637387,
329.0077209,-0.0008088041795,329.0077209,0.4953705966,329.0077209,0.2377336174,
327.9936829,-0.000365356158,327.9936829,0.4927164018,327.9936829,0.2313099951,
327.0185242,-0.00112711254,327.0185242,0.4900813103,327.0185242,0.2228942364,
326.0041809,0.0004992389004,326.0041809,0.4890868962,326.0041809,0.2182427347,
324.9897461,0.001063168631,324.9897461,0.4883643687,324.9897461,0.2137254477,
324.0142212,-0.001748283394,324.0142212,0.4851520658,324.0142212,0.2061130852,
322.9994812,-0.0009129696991,322.9994812,0.483520329,322.9994812,0.202951923,
321.9846802,2.410050547E-005,321.9846802,0.4841631949,321.9846802,0.1969499737,
321.0087585,-0.00173652661,321.0087585,0.4834128022,321.0087585,0.1905757338,
319.9936523,-0.0001558573276,319.9936523,0.4839503765,319.9936523,0.1895594299,
319.0174866,-0.001312710694,319.0174866,0.4838957489,319.0174866,0.1857866645,
318.0021667,-0.0005862319958,318.0021667,0.4857276976,318.0021667,0.184254989,
316.9866638,-0.0005722204805,316.9866638,0.4880415201,316.9866638,0.1817968041,
316.0101013,-4.814523345E-005,316.0101013,0.4919969738,316.0101013,0.1813211441,
314.9943848,-0.0003462162276,314.9943848,0.494666487,314.9943848,0.1810516417,
314.0176392,-0.0002797371999,314.0176392,0.4961578548,314.0176392,0.1801386327,
313.0016479,-0.001287160092,313.0016479,0.5031011701,313.0016479,0.1806996465,
311.9855347,-0.001081823953,311.9855347,0.5101181269,311.9855347,0.18306458,
311.0083923,-0.0005713414866,311.0083923,0.5163382888,311.0083923,0.1851689667,
309.9920044,-0.001385998679,309.9920044,0.5236185789,309.9920044,0.1882891506,
309.0146484,0.001067320467,309.0146484,0.5351054072,309.0146484,0.1935551018,
307.9980164,0.0005861689569,307.9980164,0.5452660918,307.9980164,0.1987767071,
306.9812927,-3.137265958E-005,306.9812927,0.5634820461,306.9812927,0.2080393136,
306.00354,0.001772685908,306.00354,0.5849863887,306.00354,0.2207866758,
304.9865417,8.361248547E-006,304.9865417,0.6041338444,304.9865417,0.2294421941,
304.0085754,-2.557458356E-005,304.0085754,0.6361348033,304.0085754,0.2416920662,
302.9913635,0.0003414665698,302.9913635,0.6684314609,302.9913635,0.2589299083,
302.0131531,-0.003042310243,302.0131531,0.7055339813,302.0131531,0.2780948281,
300.9956665,-0.0005050003529,300.9956665,0.7530843616,300.9956665,0.2989452481,
300.0172119,0.0003889036598,300.0172119,0.7995237112,300.0172119,0.3196392953,
298.9995422,-0.0002851697209,298.9995422,0.8539794683,298.9995422,0.3405367434,
297.9816895,-0.001737918938,297.9816895,0.9121512175,297.9816895,0.3692241907,
297.0028992,-0.001777776983,297.0028992,0.9690032601,297.0028992,0.3982787132,
295.9848633,-0.001069171238,295.9848633,1.05920136,295.9848633,0.438793093,
295.0058289,-0.002603196539,295.0058289,1.133748055,295.0058289,0.4849199951,
293.9875183,-0.0009130213875,293.9875183,1.24402988,293.9875183,0.520319283,
293.0082397,0.01087875664,293.0082397,1.353953242,293.0082397,0.5615639091,
291.9896851,-0.00368800899,291.9896851,1.483565688,291.9896851,0.6128022075,
291.0102234,0.0004685816239,291.0102234,1.588787079,291.0102234,0.6515209675,
289.9914856,-0.006070502102,289.9914856,1.649075031,289.9914856,0.6686116457,
289.0117798,0.008231864311,289.0117798,1.708157301,289.0117798,0.695991993,
287.9927673,0.001936231391,287.9927673,1.81760025,287.9927673,0.7283201814,
287.0128174,4.519925278E-005,287.0128174,1.885561109,287.0128174,0.7803798318,
285.9936523,-0.00569770392,285.9936523,1.980162978,285.9936523,0.8299788833,
285.0134888,0.003322560806,285.0134888,2.086597919,285.0134888,0.8680126667,
283.9940186,-0.001071805018,283.9940186,2.068241358,283.9940186,0.8914512396,
283.0136414,0.0002222620096,283.0136414,2.15849638,283.0136414,0.9068086743,
281.993988,-0.001893875538,281.993988,2.111677885,281.993988,0.9185426831,
281.0133972,0.001199787832,281.0133972,2.257645369,281.0133972,0.9211301804,
279.9934692,0.0002565280301,279.9934692,2.058021307,279.9934692,0.9252149463,
279.0126953,0.0002516327368,279.0126953,2.170360565,279.0126953,0.928544879,
277.9925537,-0.002649201546,277.9925537,2.125715256,277.9925537,0.9283896685,
277.0115356,-0.0003695461201,277.0115356,2.194905281,277.0115356,0.9230926633,
275.9911804,-0.0001472661825,275.9911804,2.122680426,275.9911804,0.9215880036,
275.0099487,-0.0002278402826,275.0099487,2.227368355,275.0099487,0.9009167552,
273.9893494,-0.002077858197,273.9893494,2.181350708,273.9893494,0.8868522048,
273.0079346,-0.003658182686,273.0079346,2.177147627,273.0079346,0.8658472896,
271.9871521,0.002532103332,271.9871521,2.139577627,271.9871521,0.8511056304,
271.0055237,-0.001478262246,271.0055237,2.083103657,271.0055237,0.8403635025,
269.9844666,-0.0008380516083,269.9844666,2.019658089,269.9844666,0.8174962401,
269.0026245,-0.002797321416,269.0026245,2.072324753,269.0026245,0.8085091114,
267.9814148,-0.001794018201,267.9814148,2.015109301,267.9814148,0.7897512317,
266.9993286,0.002138363197,266.9993286,2.03085947,266.9993286,0.762185216,
266.0171814,0.001678111847,266.0171814,1.933890343,266.0171814,0.7339553237,
264.9956055,7.51275802E-005,264.9956055,1.992608905,264.9956055,0.7336328626,
264.0132446,-0.003230277915,264.0132446,1.909925938,264.0132446,0.7056237459,
262.9915161,-0.0003070543171,262.9915161,1.852228999,262.9915161,0.6842544079,
262.0089417,0.00172494154,262.0089417,1.835012078,262.0089417,0.6617648005,
260.9869385,-0.0006923117326,260.9869385,1.779718161,260.9869385,0.6501677632,
260.0041809,5.366492769E-005,260.0041809,1.773623943,260.0041809,0.6369219422,
258.9820251,-0.001929853577,258.9820251,1.736791611,258.9820251,0.6232261062,
257.999054,0.001800030121,257.999054,1.711451411,257.999054,0.6210486293,
257.0159912,-0.0006948962109,257.0159912,1.660944343,257.0159912,0.5931250453,
255.9934692,-0.000879232306,255.9934692,1.641589284,255.9934692,0.5770986676,
255.0102081,-0.0009296049247,255.0102081,1.614040852,255.0102081,0.5659996271,
253.9875031,-0.0006630545249,253.9875031,1.616121531,253.9875031,0.5677073598,
253.0040436,0.0006079690065,253.0040436,1.598625064,253.0040436,0.5666347742,
251.9811554,-0.002218240639,251.9811554,1.592321992,251.9811554,0.5651650429,
250.9974976,-0.0003727532458,250.9974976,1.594284773,250.9974976,0.5664520264,
250.0137787,0.0002023718698,250.0137787,1.598630667,250.0137787,0.5679396391,
248.9905396,0.003047896782,248.9905396,1.664800167,248.9905396,0.5896592736,
248.0066071,-0.002028494608,248.0066071,1.686383367,248.0066071,0.6027907729,
246.9832306,-0.002171880798,246.9832306,1.758997679,246.9832306,0.6340756416,
245.999115,0.0001204123328,245.999115,1.785350561,245.999115,0.6612811089,
245.0148773,0.003146080999,245.0148773,1.932102799,245.0148773,0.6977298856,
243.9911652,-0.01184220333,243.9911652,2.022539854,243.9911652,0.7628401518,
243.0067444,-0.00165989378,243.0067444,2.093757391,243.0067444,0.8090959191,
241.9828949,-0.01813556254,241.9828949,2.312242985,241.9828949,0.8960646391,
240.998291,0.01348355785,240.998291,2.032737494,240.998291,1.026121616,
240.0135956,-6.11901196E-005,240.0135956,1.695701003,240.0135956,1.096251249,
238.9893951,0.003248225432,238.9893951,1.825262308,238.9893951,1.223016977,
238.0045471,-0.0353866145,238.0045471,2.27408123,238.0045471,1.08251977,
237.0195923,-0.01488420833,237.0195923,1.51078546,237.0195923,1.259446502,
235.9951324,0.01414010208,235.9951324,1.283363461,235.9951324,0.5887906551,
235.0099792,0.01457625255,235.0099792,0.7350001931,235.0099792,0.595549345,
233.9853058,-0.03303276747,233.9853058,0.5410684943,233.9853058,10,
233.0000153,0.1868584454,233.0000153,0.3538070321,233.0000153,-0.02736985311,
232.0145874,0.03560595587,232.0145874,0.9479054809,232.0145874,0.4872320294,
230.9896545,0.3377119303,230.9896545,0.3828041255,230.9896545,10,
230.0040436,0.0423505865,230.0040436,10,230.0040436,0.1985765696,
229.0183716,-0.02508878522,229.0183716,-0.006189541891,229.0183716,-0.06246317178,
227.9931793,0.04644024745,227.9931793,0.1788008511,227.9931793,0.1701447219,
227.0073395,-0.2432291806,227.0073395,-0.03234250471,227.0073395,-0.09950970113,
225.9819183,-0.09958762676,225.9819183,0.09806339443,225.9819183,10,
224.9959259,0.1605262011,224.9959259,-0.1706199497,224.9959259,-0.06050123274,
224.0097961,0.3045024276,224.0097961,0.7388254404,224.0097961,0.3413565457,
222.9841614,-0.06410779804,222.9841614,0.463478595,222.9841614,0.2760263383,
221.9978485,-0.1524039209,221.9978485,0.1201180816,221.9978485,0.2152684927,
221.0114899,0.3319936395,221.0114899,0.3295073509,221.0114899,-0.0904661268,
219.9855499,-0.09886346012,219.9855499,0.3449485004,219.9855499,0.1431681663,
218.9989929,-0.1972607523,218.9989929,-0.4726649523,218.9989929,0.1886506677,
218.0123901,-0.266692847,218.0123901,-0.1518698335,218.0123901,0.02262158319,
216.9862061,-0.007634356152,216.9862061,10,216.9862061,10,
215.9994202,0.2065891027,215.9994202,0.121889025,215.9994202,0.2397902012,
215.0125275,-0.4240356982,215.0125275,0.2658360302,215.0125275,-0.5758094192,
213.9861145,10,213.9861145,10,213.9861145,10,
212.999054,10,212.999054,-0.377361387,212.999054,-0.2691055536,
212.0119629,-0.02658049017,212.0119629,0.1707402915,212.0119629,10,
210.98526,0.4208654761,210.98526,0.2235429883,210.98526,0.1976559162,
209.9979858,-0.03019040078,209.9979858,-0.1743521839,209.9979858,-0.1414598972,
209.0106049,0.3263496161,209.0106049,0.254170835,209.0106049,0.1461859047,
207.9836884,0.0250388626,207.9836884,0.4079722166,207.9836884,0.5249684453,
206.9961395,-0.6964982152,206.9961395,-0.07240956277,206.9961395,10,
206.0085602,0.4970582426,206.0085602,0.2825943232,206.0085602,0.02118070982,
204.9813538,0.006944677327,204.9813538,0.1090644896,204.9813538,10,
203.9936066,10,203.9936066,0.01695197634,203.9936066,0.4637015462,
203.0057373,0.09096437693,203.0057373,-0.01581802033,203.0057373,0.06813324988,
202.0178375,-0.2564529777,202.0178375,-0.0624386929,202.0178375,10,
200.9903259,10,200.9903259,10,200.9903259,10,
200.0022583,10,200.0022583,10,200.0022583,-0.7649330497,

baseline,
baseline
Collection Time: 03/03/2021 11:56:15
Operator Name  :
Scan Version 5.0.0.999
Parameter List :
Instrument  Cary 60
Instrument Version  2.00
Start (nm)  800.0
Stop (nm)  200.0
X Mode  Nanometers
Y Mode  Abs
UV-Vis Scan Rate (nm/min)  4800.000
UV-Vis Data Interval (nm)  1.00
UV-Vis Ave. Time (sec)  0.0125
Beam Mode  Dual Beam
Baseline Correction  On
Baseline Type  Baseline correction
Baseline File Name
Baseline Std Ref File Name
Cycle Mode  Off
Method Log     :
Method Name    :
Date/Time stamp: 03/03/2021 11:55:23
Method Modifications:
Common Interval nm Changed: 03/03/2021 11:55:56, Old:     5.00, New:     1.00
Baseline Correction Changed: 03/03/2021 11:55:56, Old:0, New:1
Storage Changed: 03/03/2021 11:55:56, Old:1, New:0
End Method Modifications
<Current Wavelength> , 203.0

wt,
wt
Collection Time: 03/03/2021 11:56:32
Operator Name  :
Scan Version 5.0.0.999
Parameter List :
Instrument  Cary 60
Instrument Version  2.00
Start (nm)  800.0
Stop (nm)  200.0
X Mode  Nanometers
Y Mode  Abs
UV-Vis Scan Rate (nm/min)  4800.000
UV-Vis Data Interval (nm)  1.00
UV-Vis Ave. Time (sec)  0.0125
Beam Mode  Dual Beam
Baseline Correction  On
Baseline Type  Baseline correction
Baseline File Name
Baseline Std Ref File Name
Cycle Mode  Off
Method Log     :
Method Name    :
Date/Time stamp: 03/03/2021 11:55:23
Method Modifications:
Common Interval nm Changed: 03/03/2021 11:55:56, Old:     5.00, New:     1.00
Baseline Correction Changed: 03/03/2021 11:55:56, Old:0, New:1
Storage Changed: 03/03/2021 11:55:56, Old:1, New:0
End Method Modifications
<Current Wavelength> , 243.0

dm,
dm
Collection Time: 03/03/2021 11:56:51
Operator Name  :
Scan Version 5.0.0.999
Parameter List :
Instrument  Cary 60
Instrument Version  2.00
Start (nm)  800.0
Stop (nm)  200.0
X Mode  Nanometers
Y Mode  Abs
UV-Vis Scan Rate (nm/min)  4800.000
UV-Vis Data Interval (nm)  1.00
UV-Vis Ave. Time (sec)  0.0125
Beam Mode  Dual Beam
Baseline Correction  On
Baseline Type  Baseline correction
Baseline File Name
Baseline Std Ref File Name
Cycle Mode  Off
Method Log     :
Method Name    :
Date/Time stamp: 03/03/2021 11:55:23
Method Modifications:
Common Interval nm Changed: 03/03/2021 11:55:56, Old:     5.00, New:     1.00
Baseline Correction Changed: 03/03/2021 11:55:56, Old:0, New:1
Storage Changed: 03/03/2021 11:55:56, Old:1, New:0
End Method Modifications
<Current Wavelength> , 257.0

