baseline,,bm3wt-0.5%1,,bm3dm-0.5%,,
Wavelength (nm),Abs,Wavelength (nm),Abs,Wavelength (nm),Abs,
800.0085449,0.001629832201,800.0085449,0.0120918788,800.0085449,0.01174668968,
799.0036011,-0.0001430223056,799.0036011,0.01162391435,799.0036011,0.01089359447,
797.9984131,-0.0004027024552,797.9984131,0.01154806558,797.9984131,0.0108380951,
796.9927979,0.0003231252776,796.9927979,0.01182903815,796.9927979,0.01026610844,
795.9866333,0.001239115256,795.9866333,0.01170467027,795.9866333,0.01013225131,
795.0148926,-9.16266581E-005,795.0148926,0.01194122713,795.0148926,0.01108751073,
794.0080566,-0.0009382322896,794.0080566,0.01183983777,794.0080566,0.01116875093,
793.0007935,-0.0001513547613,793.0007935,0.01133932825,793.0007935,0.01114896405,
791.993103,-0.0001545635023,791.993103,0.01158874016,791.993103,0.01115655992,
790.9850464,0.0005001199897,790.9850464,0.01144139841,790.9850464,0.01025929675,
790.0113525,0.001100667054,790.0113525,0.01300926507,790.0113525,0.01023303065,
789.0025024,0.001200540573,789.0025024,0.01341483183,789.0025024,0.01197007112,
787.9932251,-0.0005275461008,787.9932251,0.01252528466,787.9932251,0.009143555537,
786.9835815,0.0004603151756,786.9835815,0.01252973359,786.9835815,0.01119374577,
786.0083618,0.0002923250431,786.0083618,0.01204610057,786.0083618,0.009642359801,
784.9979248,-0.0004243225267,784.9979248,0.01173770055,784.9979248,0.01006095391,
783.9870605,0.0007217306993,783.9870605,0.01168134902,783.9870605,0.01144828275,
783.0106812,0.001448610565,783.0106812,0.01198614296,783.0106812,0.01190937962,
781.9990845,6.282979302E-005,781.9990845,0.01285117585,781.9990845,0.01168150827,
780.9869995,0.001257936703,780.9869995,0.01259850617,780.9869995,0.01216364373,
780.0095825,0.0006881798035,780.0095825,0.01294941455,780.0095825,0.0123961363,
778.9967651,3.562055281E-005,778.9967651,0.01234822161,778.9967651,0.01167725399,
777.9835815,0.0009508999647,777.9835815,0.01238433644,777.9835815,0.01248907764,
777.0048828,0.0004120670783,777.0048828,0.01296968386,777.0048828,0.01190804876,
775.9909668,0.0007941564545,775.9909668,0.01385137718,775.9909668,0.01116782147,
775.0115967,0.0002277785825,775.0115967,0.01299910247,775.0115967,0.01246954966,
773.9967651,0.0001647436584,773.9967651,0.01248614676,773.9967651,0.01042071357,
773.0167236,0.0009543763008,773.0167236,0.01263728086,773.0167236,0.01285546832,
772.0011597,5.387204146E-005,772.0011597,0.01134862844,772.0011597,0.01154078171,
770.9852905,0.001202695072,770.9852905,0.01428889669,770.9852905,0.01129987277,
770.0040283,7.015663869E-005,770.0040283,0.01301633287,770.0040283,0.01196214184,
768.9873657,0.0004944704124,768.9873657,0.01239629649,768.9873657,0.01132317353,
768.0054321,3.950378596E-005,768.0054321,0.01193545386,768.0054321,0.01129527669,
766.9879761,0.0003428137279,766.9879761,0.01239432488,766.9879761,0.01164018735,
766.0053101,0.001787475543,766.0053101,0.01293023955,766.0053101,0.01236148458,
764.9869995,-6.471444067E-006,764.9869995,0.01167884935,764.9869995,0.01042572502,
764.0036011,-0.0004295980616,764.0036011,0.01303121727,764.0036011,0.01183047425,
762.9846191,0.001073418767,762.9846191,0.0115587255,762.9846191,0.0123771457,
762.0004272,0.0002148031053,762.0004272,0.01287994627,762.0004272,0.01212962344,
761.0158691,0.001410224941,761.0158691,0.01351490803,761.0158691,0.01212821249,
759.9957886,0.0003705862619,759.9957886,0.01209800132,759.9957886,0.01185194124,
759.010498,0.0001233123767,759.010498,0.01227352396,759.010498,0.01112309657,
757.989624,0.0005005346611,757.989624,0.01308270171,757.989624,0.01300601102,
757.0036621,0.0002567611518,757.0036621,0.0119649088,757.0036621,0.01211836375,
756.0172729,0.001553214272,756.0172729,0.01244333666,756.0172729,0.01172958873,
754.9952393,-0.0006164249498,754.9952393,0.01233338751,754.9952393,0.01152358297,
754.0081177,-0.001539811841,754.0081177,0.01151999366,754.0081177,0.01151510328,
752.9854126,0.00088817504,752.9854126,0.01322016679,752.9854126,0.01190086547,
751.9976196,-0.0003429571807,751.9976196,0.01200516988,751.9976196,0.01232481189,
751.0093994,-0.0003453885147,751.0093994,0.01206965465,751.0093994,0.01181007177,
749.9855347,0.000300329295,749.9855347,0.01251904946,749.9855347,0.01170637272,
748.9967041,0.0008220098098,748.9967041,0.01298408583,748.9967041,0.01269034483,
748.0074463,-0.000271148514,748.0074463,0.01316143479,748.0074463,0.01275482494,
746.9824219,-0.000437149225,746.9824219,0.01155747566,746.9824219,0.01190190297,
745.9924927,0.0003484095214,745.9924927,0.01254955679,745.9924927,0.01232776791,
745.0021362,0.0001566124556,745.0021362,0.01237842441,745.0021362,0.01288762596,
744.0114746,-0.0008658503066,744.0114746,0.01207942236,744.0114746,0.01219468564,
742.9850464,0.0002872998302,742.9850464,0.01246147789,742.9850464,0.0126326438,
741.9935913,2.599028994E-005,741.9935913,0.01230667718,741.9935913,0.01260023843,
741.0018921,0.000282119232,741.0018921,0.01227762457,741.0018921,0.01268173568,
740.0097656,0.0008224247722,740.0097656,0.01309198607,740.0097656,0.01346035488,
739.017334,0.001057978719,739.017334,0.01189578418,739.017334,0.01229655743,
737.9890747,0.0004313449317,737.9890747,0.01266987529,737.9890747,0.01363127399,
736.9959106,0.0007866877131,736.9959106,0.01200157776,736.9959106,0.01277071238,
736.0024414,0.000134809161,736.0024414,0.0135606816,736.0024414,0.01350708399,
735.0085449,0.0003083077609,735.0085449,0.01207673457,735.0085449,0.0130384462,
734.0143433,0.0002144405298,734.0143433,0.01282168645,734.0143433,0.01258166507,
732.9842529,0.0008824684774,732.9842529,0.01321496349,732.9842529,0.01378769707,
731.9893799,-0.0002999665157,731.9893799,0.01256748941,731.9893799,0.01331694145,
730.9941406,0.0008281564224,730.9941406,0.01286506746,730.9941406,0.01295509469,
729.9984741,6.039616346E-005,729.9984741,0.01317477599,729.9984741,0.01414090395,
729.0025024,0.0005073506036,729.0025024,0.01346994005,729.0025024,0.01389429998,
728.0062866,0.0004178710806,728.0062866,0.01250615437,728.0062866,0.01354246773,
727.0096436,0.0006564981304,727.0096436,0.01256439835,727.0096436,0.01302252151,
726.0126343,0.0001927120175,726.0126343,0.01239794772,726.0126343,0.01332433522,
725.0152588,0.0008615624974,725.0152588,0.01348956674,725.0152588,0.01401948277,
724.0177002,0.0004280282592,724.0177002,0.01344855316,724.0177002,0.01417577825,
722.9840088,0.001043006312,722.9840088,0.01377104968,722.9840088,0.01380487811,
721.9855957,0.0005766042741,721.9855957,0.0137807494,721.9855957,0.0143802911,
720.9869385,0.0001876620372,720.9869385,0.01250785962,720.9869385,0.013743449,
719.987854,0.0009350492619,719.987854,0.01356436685,719.987854,0.0143562099,
718.9885254,0.0005792740849,718.9885254,0.01283552404,718.9885254,0.01346903201,
717.9887695,0.0006986804074,717.9887695,0.01263938658,717.9887695,0.01332099829,
716.9887085,-0.0002114368835,716.9887085,0.01263712067,716.9887085,0.01303025708,
715.9882813,-0.0006529742386,715.9882813,0.01321779191,715.9882813,0.01365827955,
714.9875488,0.0002006885043,714.9875488,0.01325107086,714.9875488,0.01339272689,
713.9865112,6.606601528E-005,713.9865112,0.01335297711,713.9865112,0.01369135175,
712.9850464,0.000295951555,712.9850464,0.01339942776,712.9850464,0.01403627265,
711.9833374,-0.0001205083463,711.9833374,0.01287274621,711.9833374,0.01383269671,
711.0170288,-0.0003127451928,711.0170288,0.01299675554,711.0170288,0.0135381408,
710.0146484,0.0003528137167,710.0146484,0.01343886089,710.0146484,0.01413143706,
709.0119019,0.0004505459219,709.0119019,0.01302561536,709.0119019,0.01395382546,
708.0087891,0.0003728921001,708.0087891,0.01392455585,708.0087891,0.01483034343,
707.0053711,0.001054449705,707.0053711,0.01416320819,707.0053711,0.013933938,
706.0015869,0.001139752101,706.0015869,0.01392776333,706.0015869,0.01433451101,
704.9974976,0.001106999349,704.9974976,0.01365384553,704.9974976,0.01441202592,
703.993103,0.0008398015634,703.993103,0.01364986505,703.993103,0.0139961699,
702.9883423,0.001254951116,702.9883423,0.01334355399,702.9883423,0.01408325043,
701.9832764,0.001097423141,701.9832764,0.01327738538,701.9832764,0.01456610765,
701.0137329,-0.0002466232399,701.0137329,0.01283459086,701.0137329,0.0139186224,
700.0079956,0.000716104114,700.0079956,0.0133057842,700.0079956,0.01419770997,
699.0019531,0.0004285983159,699.0019531,0.01414635964,699.0019531,0.01500367839,
697.9956055,0.000695439463,697.9956055,0.01447700337,697.9956055,0.01493953355,
696.9887695,0.001030603307,696.9887695,0.01412632968,696.9887695,0.01523796376,
696.0177612,0.0004347134673,696.0177612,0.01414836571,696.0177612,0.0150888972,
695.0103149,-0.0001986552525,695.0103149,0.01405683346,695.0103149,0.0145294359,
694.0026855,-1.692909245E-005,694.0026855,0.01333632041,694.0026855,0.01461169682,
692.9946289,8.569101192E-005,692.9946289,0.01517225709,692.9946289,0.01473901514,
691.9862671,0.0005743232905,691.9862671,0.01434414275,691.9862671,0.01515274215,
691.0135498,0.0004367086804,691.0135498,0.01360752806,691.0135498,0.0155664878,
690.0046387,0.0005107456236,690.0046387,0.0138422111,690.0046387,0.01471065637,
688.9952393,0.0001950168953,688.9952393,0.01348719001,688.9952393,0.01424350124,
687.9856567,0.001208950882,687.9856567,0.01409496274,687.9856567,0.01542937849,
687.0116577,0.0006742053665,687.0116577,0.01462318283,687.0116577,0.01630173251,
686.0014038,0.0008900685934,686.0014038,0.01319078635,686.0014038,0.01614142023,
684.9907837,0.0008366114344,684.9907837,0.01353920903,684.9907837,0.01544815488,
684.0159302,0.0008670093375,684.0159302,0.01380813867,684.0159302,0.01497422997,
683.0046997,0.0006805314333,683.0046997,0.01453850977,683.0046997,0.01538402494,
681.993103,0.000531893922,681.993103,0.01383654494,681.993103,0.01622379944,
681.017395,9.420925926E-005,681.017395,0.01359761879,681.017395,0.0161698442,
680.005127,-0.0002721833007,680.005127,0.01382676419,680.005127,0.01574143209,
678.9926758,-3.085497883E-005,678.9926758,0.01434205566,678.9926758,0.0164224226,
678.0159302,-5.44606628E-005,678.0159302,0.01386457961,678.0159302,0.01633438841,
677.0028076,0.0007039178163,677.0028076,0.01477412507,677.0028076,0.01673634909,
675.9893188,0.001138428459,675.9893188,0.01419364382,675.9893188,0.01711197011,
675.0117188,-7.77027235E-005,675.0117188,0.01385012083,675.0117188,0.01688668132,
673.9976196,6.09657327E-005,673.9976196,0.01395689975,673.9976196,0.01705130935,
672.9832153,-0.000941538543,672.9832153,0.01393805444,672.9832153,0.01707761362,
672.0046997,-0.000231565893,672.0046997,0.01391383819,672.0046997,0.01789420843,
670.989624,-0.0006425835891,670.989624,0.01284488291,670.989624,0.01819913089,
670.0105591,-0.0006603147485,670.0105591,0.01439961046,670.0105591,0.01897183992,
668.994873,-0.0007870998816,668.994873,0.0145441303,668.994873,0.01893373951,
668.0151367,0.000488872698,668.0151367,0.015209198,668.0151367,0.01964537986,
666.9988403,0.0005025301944,666.9988403,0.01503953245,666.9988403,0.02059852891,
665.9822998,0.0005458897213,665.9822998,0.01519169193,665.9822998,0.02075511962,
665.0016479,0.000569631753,665.0016479,0.0155853508,665.0016479,0.02169250511,
663.984436,0.000888512237,663.984436,0.0153863579,663.984436,0.02270479314,
663.0032349,0.00058720581,663.0032349,0.01488729194,663.0032349,0.02261525765,
661.9853516,6.681682135E-005,661.9853516,0.01483829878,661.9853516,0.02242195792,
661.0036011,0.0003041630844,661.0036011,0.01489741821,661.0036011,0.02348086797,
659.9850464,0.0004387816589,659.9850464,0.01511867438,659.9850464,0.02437569574,
659.0027466,-0.0001416766754,659.0027466,0.01495534088,659.0027466,0.02452228777,
657.9836426,-0.0002064691653,657.9836426,0.01583001763,657.9836426,0.02466210723,
657.0007324,-0.0006310036988,657.0007324,0.01405501552,657.0007324,0.0246187374,
656.0174561,-8.960798004E-005,656.0174561,0.01465838961,656.0174561,0.02513800561,
654.9974365,0.001733154058,654.9974365,0.01661946997,654.9974365,0.0279020872,
654.0136108,0.000912532385,654.0136108,0.01532022562,654.0136108,0.02739384212,
652.993042,2.433287818E-006,652.993042,0.01504124794,652.993042,0.0273612272,
652.0085449,-0.000485401164,652.0085449,0.0156739857,652.0085449,0.02728803642,
650.9873657,-0.000212575309,650.9873657,0.01545609441,650.9873657,0.02818238176,
650.0023804,0.0004376674478,650.0023804,0.01543455478,650.0023804,0.02847761847,
649.0170898,0.001796313096,649.0170898,0.01633710414,649.0170898,0.02958505414,
647.9949951,2.798363312E-005,647.9949951,0.0158407297,647.9949951,0.02771348506,
647.0090942,0.000406185427,647.0090942,0.01562747918,647.0090942,0.02845254913,
645.9864502,-9.763089474E-005,645.9864502,0.0156791918,645.9864502,0.02926203795,
644.9998779,0.0006224338431,644.9998779,0.01614757255,644.9998779,0.02908615768,
644.0131836,0.0009079669253,644.0131836,0.01553815603,644.0131836,0.02835319936,
642.989624,0.0003237211204,642.989624,0.01535195019,642.989624,0.02816813067,
642.0022583,1.814644202E-005,642.0022583,0.01545400172,642.0022583,0.02809977345,
641.0147095,-0.0003366976744,641.0147095,0.01625443436,641.0147095,0.0285455361,
639.9902344,0.0001244775776,639.9902344,0.01613610052,639.9902344,0.02806746401,
639.0020142,0.0001422925852,639.0020142,0.01594738103,639.0020142,0.02753585763,
638.0136108,-1.553157887E-007,638.0136108,0.0159806814,638.0136108,0.02701958455,
636.9881592,0.0003442644665,636.9881592,0.01564972475,636.9881592,0.02656503953,
635.9991455,0.0003691872407,635.9991455,0.0152890943,635.9991455,0.02666486055,
635.0098877,-0.0001761959284,635.0098877,0.01548227482,635.0098877,0.02621846832,
633.9835815,0.0003619589843,633.9835815,0.01676502824,633.9835815,0.02611811645,
632.9937744,0.0003568034153,632.9937744,0.01515440457,632.9937744,0.02609197423,
632.0036011,0.0006354993093,632.0036011,0.01571700722,632.0036011,0.0264244955,
631.0131226,0.0003469069488,631.0131226,0.0156702809,631.0131226,0.02591701411,
629.9857788,-5.197591236E-005,629.9857788,0.01561862323,629.9857788,0.02572353184,
628.994751,0.0001745841728,628.994751,0.01528713666,628.994751,0.02507665195,
628.003418,-2.355559263E-005,628.003418,0.01564553753,628.003418,0.02518024668,
627.0119019,-0.0001840619952,627.0119019,0.01514518354,627.0119019,0.02498424053,
625.9833984,0.0008195978589,625.9833984,0.0162269976,625.9833984,0.02551154979,
624.9912109,0.001448610565,624.9912109,0.01657988131,624.9912109,0.02494637668,
623.9988403,9.0221969E-005,623.9988403,0.0157130342,623.9988403,0.02555476129,
623.0061646,0.0001332037355,623.0061646,0.01633498073,623.0061646,0.02528320812,
622.0132446,0.0004819534079,622.0132446,0.0164764896,622.0132446,0.0260465648,
620.9832153,0.0002489131293,620.9832153,0.01591306366,620.9832153,0.0254400149,
619.9897461,-0.000295568927,619.9897461,0.01547994092,619.9897461,0.02413240634,
618.9959717,1.757692735E-005,618.9959717,0.01574304327,618.9959717,0.02535869554,
618.0018921,7.114046457E-005,618.0018921,0.01498253644,618.0018921,0.02539267205,
617.0076294,0.0008903798298,617.0076294,0.01687174477,617.0076294,0.02598961815,
616.0130615,-0.0001303939353,616.0130615,0.01515091956,616.0130615,0.02585769445,
615.0182495,-0.000100167148,615.0182495,0.01447033882,615.0182495,0.02611028217,
613.9862061,0.00156815222,613.9862061,0.01668983512,613.9862061,0.02727665193,
612.9907837,1.612725828E-005,612.9907837,0.01460082829,612.9907837,0.02635743283,
611.9951782,0.00023461612,611.9951782,0.01522144955,611.9951782,0.02594677359,
610.9992065,-0.0002261327027,610.9992065,0.01538855676,610.9992065,0.02579055354,
610.0030518,0.0003750942997,610.0030518,0.01655928232,610.0030518,0.02775848843,
609.0065308,0.0002639358572,609.0065308,0.01611135714,609.0065308,0.02760045603,
608.0097656,1.227012217E-005,608.0097656,0.01609561592,608.0097656,0.027260473,
607.0128174,0.0006914206897,607.0128174,0.01547304727,607.0128174,0.02765659429,
606.0154419,-0.001052592881,606.0154419,0.01513623074,606.0154419,0.02775757946,
605.0179443,0.0001785981294,605.0179443,0.01657794602,605.0179443,0.02959525213,
603.9832153,0.0007373921108,603.9832153,0.01743331924,603.9832153,0.03055596165,
602.9850464,0.0002177814749,602.9850464,0.01716735959,602.9850464,0.03060809337,
601.9867554,1.641201379E-005,601.9867554,0.01604621671,601.9867554,0.03078061901,
600.9880981,0.0001375539287,600.9880981,0.01733616181,600.9880981,0.03192543238,
599.9892578,-0.0001909446873,599.9892578,0.01679344103,599.9892578,0.03193899989,
598.9900513,0.000695335737,598.9900513,0.0169181712,598.9900513,0.03275044262,
597.9907227,7.437675231E-005,597.9907227,0.01585917547,597.9907227,0.03280721977,
596.9910278,-3.163150177E-005,596.9910278,0.01726305299,596.9910278,0.03439100087,
595.9910889,0.0002652050462,595.9910889,0.01787098311,595.9910889,0.0354253538,
594.9909058,8.289478137E-005,594.9909058,0.01782418787,594.9909058,0.03670520708,
593.9904175,0.0005849506706,593.9904175,0.01885733381,593.9904175,0.03738714755,
592.9896851,0.0001057829504,592.9896851,0.0185768567,592.9896851,0.03722751886,
591.9887085,0.0006568351528,591.9887085,0.01866956428,591.9887085,0.03889439628,
590.9874878,0.0002796325716,590.9874878,0.01890267245,590.9874878,0.04027139768,
589.9860229,0.0003990342666,589.9860229,0.01909327507,589.9860229,0.04135417566,
588.9842529,0.0003008732747,588.9842529,0.02001257427,588.9842529,0.04250448942,
587.9821777,-0.0004463035439,587.9821777,0.02007142641,587.9821777,0.0433867611,
587.0170898,-0.000297017541,587.0170898,0.01940594241,587.0170898,0.04416025802,
586.0145264,0.0002799174981,586.0145264,0.02128109522,586.0145264,0.04570676759,
585.0117798,0.0002518140245,585.0117798,0.02149752341,585.0117798,0.04796247557,
584.008667,0.0005577605916,584.008667,0.02149466611,584.008667,0.04855206236,
583.0054321,0.0001398067252,583.0054321,0.02175142244,583.0054321,0.05045581609,
582.0018921,4.519925278E-005,582.0018921,0.02245401405,582.0018921,0.05126083642,
580.9979858,0.0001141462344,580.9979858,0.0235619992,580.9979858,0.05378460884,
579.9940186,0.0003965210344,579.9940186,0.0237475764,579.9940186,0.05474291369,
578.9896851,0.0004991611349,578.9896851,0.02425682545,578.9896851,0.05639009178,
577.9851685,5.651274478E-005,577.9851685,0.02461950481,577.9851685,0.05749802664,
577.0174561,6.21566578E-005,577.0174561,0.02530850656,577.0174561,0.05946200341,
576.0124512,-0.0002910160692,576.0124512,0.02571408451,576.0124512,0.06034389883,
575.0070801,0.0004085432447,575.0070801,0.02778760158,575.0070801,0.06238443404,
574.0015259,0.0001666081662,574.0015259,0.02726245672,574.0015259,0.06387159228,
572.9956665,0.0003140585613,572.9956665,0.02784274332,572.9956665,0.06470955163,
571.989563,-8.997030818E-005,571.989563,0.0277514793,571.989563,0.06611574441,
570.9832764,0.0009837187827,570.9832764,0.02887496166,570.9832764,0.06740710139,
570.0139771,0.000533734099,570.0139771,0.0279171858,570.0139771,0.06784036756,
569.0071411,0.001259779907,569.0071411,0.02955496125,569.0071411,0.06811602414,
568.000061,-0.0005305452505,568.000061,0.02807326429,568.000061,0.06829877943,
566.9927368,0.0001076730914,566.9927368,0.02772968076,566.9927368,0.06822808087,
565.9851685,0.0001201792911,565.9851685,0.02851736732,565.9851685,0.06934434921,
565.0146484,-0.0002457436058,565.0146484,0.02848698758,565.0146484,0.07053325325,
564.0065918,0.0006045473274,564.0065918,0.02815061808,564.0065918,0.06970033795,
562.998291,-0.0001253217779,562.998291,0.02728100866,562.998291,0.07001796365,
561.9897461,4.77363501E-005,561.9897461,0.02746335603,561.9897461,0.06990976632,
561.0182495,0.0003131000849,561.0182495,0.02780206315,561.0182495,0.0702181384,
560.0092773,0.000152417444,560.0092773,0.02791506052,560.0092773,0.07131608576,
558.999939,0.0002501822601,558.999939,0.02762663551,558.999939,0.070988819,
557.9904175,-1.252862785E-005,557.9904175,0.02709923312,557.9904175,0.07036866993,
557.0180054,0.0006614239537,557.0180054,0.02736522444,557.0180054,0.07034377009,
556.0079956,0.0001730821823,556.0079956,0.02653138526,556.0079956,0.07089555264,
554.9977417,0.001173675293,554.9977417,0.02688222751,554.9977417,0.07205736637,
553.9872437,0.0002772236476,553.9872437,0.02723092586,553.9872437,0.07265774906,
553.013916,0.0001237525576,553.013916,0.02696964331,553.013916,0.07285158336,
552.0029907,-0.0003189533018,552.0029907,0.02675187774,552.0029907,0.07276608795,
550.9916992,0.001117172651,550.9916992,0.02760431916,550.9916992,0.07449518889,
550.0177002,0.0007524576504,550.0177002,0.02764536627,550.0177002,0.07468999177,
549.0059814,0.001380593982,549.0059814,0.02829884924,549.0059814,0.07590680569,
547.9940796,0.0004074809258,547.9940796,0.02706294693,547.9940796,0.0760801658,
546.9818726,0.0003382801078,546.9818726,0.02814073116,546.9818726,0.07658917457,
546.006958,0.0001489475108,546.006958,0.02815597691,546.006958,0.07780198008,
544.9943237,0.0003519069578,544.9943237,0.02819036506,544.9943237,0.07835467905,
543.9814453,0.0006170937559,543.9814453,0.02854534239,543.9814453,0.07808434218,
543.0057983,-0.0001457653125,543.0057983,0.02766018175,543.0057983,0.07857256383,
541.9924316,9.389855404E-005,541.9924316,0.02839605883,541.9924316,0.07896225154,
541.0164185,-0.000151975808,541.0164185,0.03015860356,541.0164185,0.08037429303,
540.0025635,0.0007375736022,540.0025635,0.03098037094,540.0025635,0.08125400543,
538.9884644,0.0002080176782,538.9884644,0.02966661379,538.9884644,0.08005619049,
538.0116577,4.786579302E-005,538.0116577,0.02939610742,538.0116577,0.07987725735,
536.9971924,0.0003783328575,536.9971924,0.02983432822,536.9971924,0.08038584888,
535.9824219,-0.000171176056,535.9824219,0.02994691394,535.9824219,0.08031461388,
535.0050049,-0.000624024542,535.0050049,0.02860071696,535.0050049,0.08024575561,
533.9897461,0.000422612793,533.9897461,0.02925303765,533.9897461,0.08032187074,
533.0119019,0.0009167347453,533.0119019,0.02961381897,533.0119019,0.08231043816,
531.9962158,8.543209697E-005,531.9962158,0.03059167974,531.9962158,0.07941143215,
531.0179443,0.0001398844179,531.0179443,0.02914182283,531.0179443,0.07991863787,
530.00177,0.0002848131408,530.00177,0.02964943089,530.00177,0.07983936369,
528.9854126,0.0005783408997,528.9854126,0.02957189083,528.9854126,0.08023703843,
528.0064697,0.000305950467,528.0064697,0.03001949936,528.0064697,0.08111083508,
526.989563,0.0009290308226,526.989563,0.03027016111,526.989563,0.08087329566,
526.0101929,0.0005986889591,526.0101929,0.02948386595,526.0101929,0.08007122576,
524.9929199,3.002782705E-006,524.9929199,0.02904929034,524.9929199,0.07964161038,
524.0130615,0.0004559358349,524.0130615,0.02863859758,524.0130615,0.07914137095,
522.9953003,0.000616938225,522.9953003,0.0289452672,522.9953003,0.07802138478,
522.0150146,0.0004101496888,522.0150146,0.02794352174,522.0150146,0.07865018398,
520.9968262,9.940325981E-006,520.9968262,0.02777289413,520.9968262,0.07732417434,
520.0161133,-0.0002167150233,520.0161133,0.02737933956,520.0161133,0.07649222761,
518.9974976,0.0002111255017,518.9974976,0.02777134813,518.9974976,0.0766986832,
518.0163574,0.0001054463501,518.0163574,0.02776522189,518.0163574,0.07662941515,
516.9972534,0.0003392127401,516.9972534,0.02718407474,516.9972534,0.07568378001,
516.015686,4.012343652E-006,516.015686,0.0268880371,516.015686,0.07523040473,
514.9960327,0.0003659487411,514.9960327,0.02730868384,514.9960327,0.07533916831,
514.0140991,0.0001720204309,514.0140991,0.026717823,514.0140991,0.07408734411,
512.9941406,2.208129263E-005,512.9941406,0.02653708123,512.9941406,0.07408762723,
512.0117188,0.0003341351403,512.0117188,0.02714946307,512.0117188,0.07419683784,
510.9913025,0.0002777416958,510.9913025,0.02639440075,510.9913025,0.07350344211,
510.0083923,-0.0002923095017,510.0083923,0.02592399344,510.0083923,0.07273125648,
508.9875793,0.0005201533786,508.9875793,0.02642138675,508.9875793,0.07308954746,
508.0043335,6.119874161E-005,508.0043335,0.02645605057,508.0043335,0.07206961513,
506.9829712,0.0001794009295,506.9829712,0.0261265561,506.9829712,0.07218123227,
505.9992981,0.0009059435688,505.9992981,0.02653592452,505.9992981,0.07245185971,
505.0153198,0.0005866355496,505.0153198,0.02605956607,505.0153198,0.07152445614,
503.9934387,0.0002370507282,503.9934387,0.02528230287,503.9934387,0.07095422596,
503.0091248,0.0008112728246,503.0091248,0.02587607503,503.0091248,0.07096169144,
501.9866943,0.0004349985102,501.9866943,0.02558759972,501.9866943,0.07043137401,
501.0019531,0.0001499315258,501.0019531,0.02587365732,501.0019531,0.07041855901,
500.0170593,0.000384369574,500.0170593,0.0253368523,500.0170593,0.07049585879,
498.993988,0.0004235974047,498.993988,0.02592218108,498.993988,0.07015293837,
498.008606,0.0004242970026,498.008606,0.02545258775,498.008606,0.07020852715,
496.9851074,0.0002127312036,496.9851074,0.02534974925,496.9851074,0.07039347291,
495.9993591,0.001031096326,495.9993591,0.0259589199,495.9993591,0.07026920468,
495.0133972,-0.000366494176,495.0133972,0.02511126362,495.0133972,0.06862635911,
493.9892883,0.0004499499337,493.9892883,0.02569183894,493.9892883,0.06996680796,
493.0028992,0.0002306016395,493.0028992,0.02496743388,493.0028992,0.06991101056,
492.0163269,0.0003734102647,492.0163269,0.02487836219,492.0163269,0.07003375143,
490.9915771,0.0004660161794,490.9915771,0.0267908629,490.9915771,0.07106930017,
490.0046082,0.0003454561811,490.0046082,0.02548615821,490.0046082,0.07121771574,
489.0173645,0.0005626593484,489.0173645,0.02408944443,489.0173645,0.0700012967,
487.9919739,0.0001935407345,487.9919739,0.02502383478,487.9919739,0.07066310942,
487.0043945,0.0004242451978,487.0043945,0.02622578293,487.0043945,0.07143095136,
486.0166016,0.0008051004843,486.0166016,0.02376674302,486.0166016,0.07200355083,
484.9906311,0.0009980144678,484.9906311,0.02476245165,484.9906311,0.0704222694,
484.0023804,-0.0002132480149,484.0023804,0.02569041029,484.0023804,0.07132724673,
483.0140076,0.0002552847727,483.0140076,0.02715560794,483.0140076,0.07294205576,
481.9874268,0.0003747834126,481.9874268,0.02698600478,481.9874268,0.07289241999,
480.9985657,-5.306299499E-005,480.9985657,0.02629945427,480.9985657,0.0728752166,
480.009613,0.0001042812,480.009613,0.02681057714,480.009613,0.07209648192,
478.9822998,0.0001230534399,478.9822998,0.02611734718,478.9822998,0.07309435308,
477.9929199,0.0004838970199,477.9929199,0.02576135471,477.9929199,0.07436263561,
477.0033264,0.0004343507171,477.0033264,0.02653498948,477.0033264,0.07510711253,
476.0135498,-0.0002328077535,476.0135498,0.02643604949,476.0135498,0.07563087344,
474.9854736,-0.0004540095688,474.9854736,0.02615489997,474.9854736,0.07645811886,
473.9953308,8.341259672E-005,473.9953308,0.02694515698,473.9953308,0.07741413265,
473.0049133,-9.085024794E-005,473.0049133,0.02709680796,473.0049133,0.0781686306,
472.0143738,9.810893062E-006,472.0143738,0.02725823969,472.0143738,0.07973586768,
470.9855347,8.175558469E-005,470.9855347,0.02782157436,470.9855347,0.0808667168,
469.9945374,-0.0006217498449,469.9945374,0.02827821113,469.9945374,0.08229222894,
469.003418,0.0003184105735,469.003418,0.02863096632,469.003418,0.08453065157,
468.012085,3.707028736E-005,468.012085,0.0279413145,468.012085,0.08516126871,
466.9823608,0.0002407803549,466.9823608,0.02932899818,466.9823608,0.08635441214,
465.9906006,-0.0008881706744,465.9906006,0.02901248261,465.9906006,0.08797957748,
464.9987183,0.0001648472389,464.9987183,0.03015674464,464.9987183,0.09012307972,
464.0065613,-9.681244592E-006,464.0065613,0.03048914485,464.0065613,0.09143352509,
463.0142822,2.350509567E-005,463.0142822,0.0306983199,463.0142822,0.09361309558,
461.9836731,2.743921414E-006,461.9836731,0.03125181049,461.9836731,0.0955612734,
460.9909668,0.0005307794781,460.9909668,0.03147354349,460.9909668,0.09762686491,
459.9980774,-0.0001313772955,459.9980774,0.03252205625,459.9980774,0.1001512781,
459.0050354,-0.0002693893621,459.0050354,0.0341193825,459.0050354,0.1025583968,
458.0117798,0.0001234936208,458.0117798,0.03385669366,458.0117798,0.1049212441,
457.0183105,0.0002883100533,457.0183105,0.03549824283,457.0183105,0.1078421623,
455.9865112,-0.0001850970002,455.9865112,0.03486388549,455.9865112,0.1108097509,
454.9926758,0.0001968556317,454.9926758,0.03601477295,454.9926758,0.1141509935,
453.9986877,-5.042293924E-005,453.9986877,0.03777759522,453.9986877,0.1176706478,
453.0045166,-4.985351188E-005,453.0045166,0.03818840533,453.0045166,0.1204204708,
452.0101013,-0.0005572778173,452.0101013,0.03935696185,452.0101013,0.1247272491,
451.0155945,-0.001039371244,451.0155945,0.04036743194,451.0155945,0.1292061061,
449.9825745,0.000607346883,449.9825745,0.04127964377,449.9825745,0.1348855495,
448.9876404,0.000471976382,448.9876404,0.04340455309,448.9876404,0.1395616233,
447.9924927,0.0005427536089,447.9924927,0.0445943661,447.9924927,0.1452031732,
446.9972534,0.0002020092943,446.9972534,0.04592625424,446.9972534,0.1504835933,
446.00177,0.001606577775,446.00177,0.0493206121,446.00177,0.1592199504,
445.0061035,-5.021848665E-006,445.0061035,0.04978214949,445.0061035,0.1658226252,
444.0102234,0.0004876806051,444.0102234,0.05052920803,444.0102234,0.1733362675,
443.0142212,0.0003028160718,443.0142212,0.05300593004,443.0142212,0.1817578673,
442.0180664,0.0006991989212,442.0180664,0.05607349798,442.0180664,0.1931478828,
440.9833374,-0.0002539706184,440.9833374,0.05811843649,440.9833374,0.203828752,
439.9867554,7.271976938E-005,439.9867554,0.06170709059,439.9867554,0.2147794813,
438.9900208,-0.0001380020549,438.9900208,0.06350922585,438.9900208,0.2268583179,
437.9930725,-5.021848665E-006,437.9930725,0.06817453355,437.9930725,0.2401429415,
436.9959106,-0.0001125893687,436.9959106,0.07114571333,436.9959106,0.2551872134,
435.9986267,3.419670975E-005,435.9986267,0.07625082135,435.9986267,0.2707409859,
435.0012207,0.0001138873049,435.0012207,0.0810623765,435.0012207,0.2852707207,
434.0035706,-0.0001802324841,434.0035706,0.08582682908,434.0035706,0.301703155,
433.0057068,-2.376266821E-005,433.0057068,0.09179473668,433.0057068,0.3212176263,
432.007782,-0.0004595950595,432.007782,0.09706065804,432.007782,0.3395762742,
431.0095825,-4.182970952E-005,431.0095825,0.1039832681,431.0095825,0.3588071167,
430.0112305,0.0004267586046,430.0112305,0.1111256555,430.0112305,0.3791724443,
429.0127258,-2.712764763E-005,429.0127258,0.1168694049,429.0127258,0.3974415362,
428.0140381,-7.268171612E-005,428.0140381,0.1243552417,428.0140381,0.41814816,
427.0151672,-7.920384087E-005,427.0151672,0.1313419938,427.0151672,0.4359988868,
426.0160522,-0.0002653019037,426.0160522,0.1383595318,426.0160522,0.456111908,
425.0168762,-0.0005146703916,425.0168762,0.1447977275,425.0168762,0.4735777676,
424.0175171,7.784608169E-005,424.0175171,0.1519890875,424.0175171,0.489433527,
423.0179749,0.000106378473,423.0179749,0.1576818228,423.0179749,0.503087461,
422.0181885,-5.958541078E-005,422.0181885,0.1621983051,422.0181885,0.517329216,
421.0182495,0.0002468669845,421.0182495,0.1665358394,421.0182495,0.5286886692,
420.018219,-0.0002499347611,420.018219,0.1699147075,420.018219,0.5364391208,
419.0179138,-8.903859998E-005,419.0179138,0.1720184982,419.0179138,0.5428652167,
418.0174866,0.00071167032,418.0174866,0.1732781678,418.0174866,0.5471283197,
417.0169373,0.0001625684235,417.0169373,0.1729455292,417.0169373,0.5497008562,
416.0161743,0.000475422974,416.0161743,0.1723655164,416.0161743,0.5487353206,
415.0151978,0.00043621636,415.0151978,0.170009613,415.0151978,0.5455440879,
414.0140991,0.0001514593168,414.0140991,0.1653457284,414.0140991,0.5406133533,
413.0128479,0.0005677395966,413.0128479,0.1643555313,413.0128479,0.5358424187,
412.0114136,0.0001981246169,412.0114136,0.1607958972,412.0114136,0.5302190185,
411.0097961,-0.0004651287745,411.0097961,0.1558781564,411.0097961,0.5219819546,
410.0080261,0.0001263936865,410.0080261,0.1524153203,410.0080261,0.5149195194,
409.006073,-0.000285894057,409.006073,0.1482080817,409.006073,0.509072125,
408.0039063,4.814816748E-006,408.0039063,0.143924877,408.0039063,0.5010136366,
407.0016785,0.0005669879029,407.0016785,0.1399824768,407.0016785,0.4953644872,
405.9992676,-0.0001547705033,405.9992676,0.1360211074,405.9992676,0.4882849753,
404.9966431,0.0002602319291,404.9966431,0.1321693212,404.9966431,0.4827861786,
403.9938354,-8.588115452E-005,403.9938354,0.1302990168,403.9938354,0.4791893661,
402.9909058,-3.71706592E-005,402.9909058,0.127920419,402.9909058,0.4759376943,
401.9878235,0.0003496789723,401.9878235,0.1227732748,401.9878235,0.4713623524,
400.9845276,0.000208691039,400.9845276,0.1210639998,400.9845276,0.4671151936,
399.9810791,-5.21829752E-005,399.9810791,0.1185300201,399.9810791,0.4642241001,
399.0161133,-0.0001842689962,399.0161133,0.1159768254,399.0161133,0.4632250667,
398.0123596,0.0001026241007,398.0123596,0.1144980416,398.0123596,0.4608655274,
397.0084534,-0.0001661561255,397.0084534,0.1123301834,397.0084534,0.4586490393,
396.004364,0.0003628916456,396.004364,0.1102890074,396.004364,0.4552371502,
395.0001526,0.001407576026,395.0001526,0.1097670496,395.0001526,0.4541379809,
393.9957581,0.0009677890339,393.9957581,0.1075585783,393.9957581,0.4496995509,
392.9911499,0.001918940572,392.9911499,0.1061939746,392.9911499,0.4467497766,
391.9864502,0.0006702386891,391.9864502,0.1020850688,391.9864502,0.4407419264,
390.9815369,0.0001628532773,390.9815369,0.1018177867,390.9815369,0.4362303913,
390.0151672,0.0007437190507,390.0151672,0.1000724956,390.0151672,0.4328743815,
389.0100098,0.0004993684706,389.0100098,0.09574650228,389.0100098,0.4246535301,
388.0046387,0.0009114947752,388.0046387,0.0955632776,388.0046387,0.4192999899,
386.9991455,0.0001197132151,386.9991455,0.09386733919,386.9991455,0.4117749631,
385.9934692,-0.0004563886032,385.9934692,0.09137483686,385.9934692,0.403850168,
384.9876404,0.0008726119413,384.9876404,0.09043101221,384.9876404,0.3966183364,
383.9816589,9.949116793E-005,383.9816589,0.08760882914,383.9816589,0.3896758258,
383.0142212,-0.0001978272776,383.0142212,0.08752497286,383.0142212,0.3830202222,
382.0079041,-0.0006927769282,382.0079041,0.08452590555,382.0079041,0.3748565018,
381.0014954,-8.567410259E-005,381.0014954,0.08382514864,381.0014954,0.3689806163,
379.994873,-0.0003023463942,379.994873,0.08321782202,379.994873,0.362302959,
378.9881287,-2.780064096E-005,378.9881287,0.081772618,378.9881287,0.3574976623,
377.9812012,0.0005848729052,377.9812012,0.07954077423,377.9812012,0.3517580628,
377.0128784,-0.0003122278431,377.0128784,0.08045098186,377.0128784,0.3474035263,
376.0056763,0.0005609227228,376.0056763,0.0796405822,376.0056763,0.3433897495,
374.9983215,0.0006111574476,374.9983215,0.07997912914,374.9983215,0.3392194211,
373.9908142,4.916023681E-005,373.9908142,0.07905764133,373.9908142,0.3345314264,
372.9831238,0.0003801982675,372.9831238,0.07837039232,372.9831238,0.3316471577,
372.0140686,0.001101134229,372.0140686,0.07768642902,372.0140686,0.3298636675,
371.006073,0.0002012064651,371.006073,0.07792697102,371.006073,0.3263705671,
369.9979858,-0.0004414936702,369.9979858,0.07822172344,369.9979858,0.3248971999,
368.9896851,9.629687156E-006,368.9896851,0.07719212025,368.9896851,0.3213553727,
367.9812927,6.186790415E-006,367.9812927,0.07702653855,367.9812927,0.3184240758,
367.0115051,0.0004628546885,367.0115051,0.07703392953,367.0115051,0.3174501359,
366.0028076,0.001718470245,366.0028076,0.07858872414,366.0028076,0.3156218827,
364.9939575,0.0001573634217,364.9939575,0.07712966949,364.9939575,0.312077105,
363.9848938,0.0006797277019,363.9848938,0.0768410638,363.9848938,0.3090036511,
363.0145264,-0.001154169906,363.0145264,0.07724259049,363.0145264,0.3052788079,
362.005249,0.0003673736937,362.005249,0.07587628812,362.005249,0.3019104004,
360.9957886,-0.0001301869052,360.9957886,0.07809394598,360.9957886,0.2982896864,
359.9861755,0.0003998374741,359.9861755,0.07647901773,359.9861755,0.2962608635,
359.0152893,0.0002784151584,359.0152893,0.07491140813,359.0152893,0.2908132076,
358.0054016,-3.132089114E-005,358.0054016,0.0739595294,358.0054016,0.286665827,
356.9953308,-3.960372487E-005,356.9953308,0.07541482896,356.9953308,0.283077985,
355.985199,-9.54569623E-005,355.985199,0.07330453396,355.985199,0.2756335735,
355.0137024,-0.0004408213426,355.0137024,0.07323822379,355.0137024,0.2714370191,
354.0032349,-0.0001199907711,354.0032349,0.07243742049,354.0032349,0.2679426372,
352.9926453,-0.0004879351472,352.9926453,0.07200539112,352.9926453,0.26330477,
351.9818726,0.0005024783313,351.9818726,0.07170590758,351.9818726,0.2570872605,
351.0098572,0.0001200498227,351.0098572,0.06994585693,351.0098572,0.2511725128,
349.9988098,0.0005184428883,349.9988098,0.0694392547,349.9988098,0.2460979968,
348.9876404,0.001075468725,348.9876404,0.06837000698,348.9876404,0.2402826399,
348.0152283,0.0008191828965,348.0152283,0.06745583564,348.0152283,0.2353374064,
347.0037842,7.691402425E-005,347.0037842,0.06532660872,347.0037842,0.2300942242,
345.9921875,0.0001260311838,345.9921875,0.06458560377,345.9921875,0.2238055468,
345.0193481,0.0005054846406,345.0193481,0.06325618178,345.0193481,0.2200047821,
344.0074768,0.0002149326028,344.0074768,0.06331200153,344.0074768,0.2143522948,
342.9954834,0.0001216034143,342.9954834,0.0621759519,342.9954834,0.209283188,
341.9833069,0.0009504330228,341.9833069,0.06133096293,341.9833069,0.2043904066,
341.0099487,0.0004012625141,341.0099487,0.06048568338,341.0099487,0.1993577778,
339.9975281,0.0008736494347,339.9975281,0.06012895703,339.9975281,0.194538027,
338.9849548,0.0004406991648,338.9849548,0.05820130557,338.9849548,0.1900682151,
338.0112,0.0005345116369,338.0112,0.05809855089,338.0112,0.185597226,
336.9983215,2.511011553E-005,336.9983215,0.05580443516,336.9983215,0.1820574552,
335.9853821,0.0003691354359,335.9853821,0.05613971502,335.9853821,0.1772512197,
335.0112305,-0.0002803580719,335.0112305,0.05427244306,335.0112305,0.1725301594,
333.9979858,0.0003995006264,333.9979858,0.0541314967,333.9979858,0.1698819846,
332.9846191,0.0001883094665,332.9846191,0.05311473832,332.9846191,0.1653094739,
332.0100708,-0.0002486411831,332.0100708,0.05278640613,332.0100708,0.1621332914,
330.9964294,0.0005069359322,330.9964294,0.05239791796,330.9964294,0.1572234035,
329.9826355,0.0004627510498,329.9826355,0.05130211264,329.9826355,0.1543831825,
329.0077209,-0.0002959828125,329.0077209,0.04972141981,329.0077209,0.150075376,
327.9936829,3.668196587E-005,327.9936829,0.04986047745,327.9936829,0.146608144,
327.0185242,0.0002551034559,327.0185242,0.04791047424,327.0185242,0.1437910944,
326.0041809,2.775064422E-005,326.0041809,0.04840063304,326.0041809,0.1408376843,
324.9897461,-8.412125317E-005,324.9897461,0.04735992104,324.9897461,0.1377727836,
324.0142212,7.365182682E-005,324.0142212,0.04642642289,324.0142212,0.1356335878,
322.9994812,0.0005024524289,322.9994812,0.0481910035,322.9994812,0.1343070269,
321.9846802,0.001417496707,321.9846802,0.04702133685,321.9846802,0.130998373,
321.0087585,0.0005586936604,321.0087585,0.04513093829,321.0087585,0.1282762885,
319.9936523,-0.0005330789718,319.9936523,0.0452205278,319.9936523,0.1252448559,
319.0174866,0.0002742448705,319.0174866,0.0457043238,319.0174866,0.1243619695,
318.0021667,0.0002857456566,318.0021667,0.04569017515,318.0021667,0.1233431622,
316.9866638,0.0006796758389,316.9866638,0.04520202801,316.9866638,0.1214953661,
316.0101013,3.701709147E-006,316.0101013,0.04466829449,316.0101013,0.1202894971,
314.9943848,0.0002917033853,314.9943848,0.04411816224,314.9943848,0.1187540293,
314.0176392,0.0004082064261,314.0176392,0.0441824384,314.0176392,0.1205918714,
313.0016479,0.0007261905121,313.0016479,0.04477962479,313.0016479,0.1189169437,
311.9855347,9.791176853E-005,311.9855347,0.04516847804,311.9855347,0.1190310568,
311.0083923,-0.0001611878979,311.0083923,0.04626524821,311.0083923,0.1203479618,
309.9920044,5.16455766E-005,309.9920044,0.04674929008,309.9920044,0.1210305393,
309.0146484,0.0001398585155,309.0146484,0.04846479371,309.0146484,0.1229283661,
307.9980164,0.0003270629095,307.9980164,0.05006734654,307.9980164,0.1256316155,
306.9812927,0.0009980404284,306.9812927,0.05158160627,306.9812927,0.1297026575,
306.00354,0.0005330084241,306.00354,0.05452420935,306.00354,0.1333808452,
304.9865417,-0.0003873918904,304.9865417,0.05640609935,304.9865417,0.1385713518,
304.0085754,0.0002540415153,304.0085754,0.06081236154,304.0085754,0.1453339309,
302.9913635,0.0001979692315,302.9913635,0.06538627297,302.9913635,0.1524007916,
302.0131531,9.008410416E-006,302.0131531,0.07156456262,302.0131531,0.1616938859,
300.9956665,0.0007434078725,300.9956665,0.07788658142,300.9956665,0.173839584,
300.0172119,-0.0004175469803,300.0172119,0.08356573433,300.0172119,0.1845146865,
298.9995422,0.0003890591033,298.9995422,0.09278095514,298.9995422,0.1971301287,
297.9816895,0.0003562075435,297.9816895,0.1012780592,297.9816895,0.2091560811,
297.0028992,-0.0001818884921,297.0028992,0.1121140867,297.0028992,0.2271040529,
295.9848633,0.0005149700446,295.9848633,0.1252063364,295.9848633,0.2425941825,
295.0058289,0.0005981964641,295.0058289,0.1380115896,295.0058289,0.2628029585,
293.9875183,0.0005492332275,293.9875183,0.1555773467,293.9875183,0.2853848338,
293.0082397,4.55616937E-005,293.0082397,0.1766594499,293.0082397,0.3133327365,
291.9896851,0.0004115229531,291.9896851,0.1943843961,291.9896851,0.333106637,
291.0102234,0.0001409978722,291.0102234,0.2119539827,291.0102234,0.3560658991,
289.9914856,-0.0002445018035,289.9914856,0.2233957499,289.9914856,0.3681618571,
289.0117798,0.0006394915981,289.0117798,0.2342853546,289.0117798,0.3844292164,
287.9927673,0.001668055309,287.9927673,0.2477317005,287.9927673,0.404786855,
287.0128174,0.0004692813091,287.0128174,0.2666108012,287.0128174,0.4252288938,
285.9936523,2.280613626E-005,285.9936523,0.284869194,285.9936523,0.4525690675,
285.0134888,0.0002960551647,285.0134888,0.2998240888,285.0134888,0.4774772525,
283.9940186,0.0007194229984,283.9940186,0.3119769394,283.9940186,0.4920878708,
283.0136414,-0.000560586981,283.0136414,0.3164833188,283.0136414,0.498737663,
281.993988,0.001357301022,281.993988,0.3226307333,281.993988,0.5032483935,
281.0133972,0.0009426762117,281.0133972,0.3252344429,281.0133972,0.5060121417,
279.9934692,0.0001333073014,279.9934692,0.3268722892,279.9934692,0.5080018044,
279.0126953,-0.0002501417184,279.0126953,0.3288709819,279.0126953,0.5098726153,
277.9925537,0.0004534740874,277.9925537,0.3284417093,277.9925537,0.5115795135,
277.0115356,-0.0001753161632,277.0115356,0.3274727762,277.0115356,0.5083143711,
275.9911804,6.567766832E-005,275.9911804,0.3234530389,275.9911804,0.5049318671,
275.0099487,0.0007228456088,275.0099487,0.319498837,275.0099487,0.5020252466,
273.9893494,0.0008356777253,273.9893494,0.3154006898,273.9893494,0.4912866056,
273.0079346,0.0005293799331,273.0079346,0.3080317378,273.0079346,0.4843242764,
271.9871521,0.0002838288201,271.9871521,0.3010412157,271.9871521,0.4710676074,
271.0055237,0.0008753354196,271.0055237,0.2993651927,271.0055237,0.4654891193,
269.9844666,0.0001417746971,269.9844666,0.2904594243,269.9844666,0.4540970027,
269.0026245,7.463565998E-005,269.0026245,0.2841658592,269.0026245,0.4469142258,
267.9814148,0.0004716135736,267.9814148,0.2758557498,267.9814148,0.4370907545,
266.9993286,0.0009851716459,266.9993286,0.2656289637,266.9993286,0.4231432676,
266.0171814,0.0003516997094,266.0171814,0.2570099831,266.0171814,0.4147531986,
264.9956055,0.00096042105,264.9956055,0.2531521022,264.9956055,0.404902339,
264.0132446,-0.0001972580503,264.0132446,0.2425573915,264.0132446,0.3916383684,
262.9915161,0.0001833113347,262.9915161,0.2324509025,262.9915161,0.3773621321,
262.0089417,-0.0004510616418,262.0089417,0.2240907997,262.0089417,0.3670160472,
260.9869385,0.001887793071,260.9869385,0.2173118293,260.9869385,0.3584937453,
260.0041809,-0.001803092426,260.0041809,0.2132327706,260.0041809,0.3532871902,
258.9820251,-0.0009380256524,258.9820251,0.2097341865,258.9820251,0.3487966955,
257.999054,-0.0001779036975,257.999054,0.202132687,257.999054,0.3414120674,
257.0159912,0.0004763558682,257.0159912,0.1933307797,257.0159912,0.3282242417,
255.9934692,-0.0004725241743,255.9934692,0.1856031865,255.9934692,0.3187250197,
255.0102081,0.0009630672866,255.0102081,0.1799659878,255.0102081,0.3144229949,
253.9875031,0.0007173746126,253.9875031,0.1777512431,253.9875031,0.3128782809,
253.0040436,0.0009490320808,253.0040436,0.1753712147,253.0040436,0.311650902,
251.9811554,0.0009583715582,251.9811554,0.1738853604,251.9811554,0.3112935722,
250.9974976,0.0008718078607,250.9974976,0.1736556292,250.9974976,0.3103301227,
250.0137787,0.001922346768,250.0137787,0.1736135781,250.0137787,0.3156831861,
248.9905396,0.0003049401857,248.9905396,0.1753527969,248.9905396,0.3206832707,
248.0066071,-2.029412462E-005,248.0066071,0.1821608841,248.0066071,0.3318491578,
246.9832306,0.0009525603382,246.9832306,0.193476662,246.9832306,0.3466543555,
245.999115,0.0007572030299,245.999115,0.203404963,245.999115,0.3636085391,
245.0148773,0.0001980987145,245.0148773,0.2167151123,245.0148773,0.3905980587,
243.9911652,0.000413414411,243.9911652,0.2374074161,243.9911652,0.4254789352,
243.0067444,0.001217543148,243.0067444,0.2669257224,243.0067444,0.4653412998,
241.9828949,0.0002022164845,241.9828949,0.3006116748,241.9828949,0.5125297904,
240.998291,0.0003287467698,240.998291,0.3497467637,240.998291,0.5730314851,
240.0135956,-0.0004961575614,240.0135956,0.4017079473,240.0135956,0.6413136125,
238.9893951,0.0004220427363,238.9893951,0.4756160378,238.9893951,0.7466320992,
238.0045471,0.0006719498197,238.0045471,0.5501016378,238.0045471,0.8535891175,
237.0195923,0.0002063342836,237.0195923,0.6830129027,237.0195923,1.00738132,
235.9951324,-0.0002790128638,235.9951324,0.8333358765,235.9951324,1.20112431,
235.0099792,-4.762991921E-006,235.0099792,0.9723536968,235.0099792,1.419618368,
233.9853058,-0.000560483546,233.9853058,1.15617919,233.9853058,1.640133739,
233.0000153,0.0002530831844,233.0000153,1.351464629,233.0000153,1.922518015,
232.0145874,0.0007059920463,232.0145874,1.572700143,232.0145874,2.245385647,
230.9896545,0.0006054805126,230.9896545,1.763290524,230.9896545,2.699164152,
230.0040436,0.001323051867,230.0040436,2.040807962,230.0040436,2.694149971,
229.0183716,0,229.0183716,1.986629844,229.0183716,2.216300249,
227.9931793,0.0003210787836,227.9931793,2.412458658,227.9931793,3.166720867,
227.0073395,-0.0005775459576,227.0073395,2.541726112,227.0073395,3.144172907,
225.9819183,0.002674655057,225.9819183,2.651280165,225.9819183,3.441006184,
224.9959259,0.008466457017,224.9959259,2.682610512,224.9959259,3.158177614,
224.0097961,-0.001684339368,224.0097961,2.759696245,224.0097961,3.341013432,
222.9841614,0.01398913935,222.9841614,2.864069462,222.9841614,3.56097579,
221.9978485,-0.005482122768,221.9978485,2.651399612,221.9978485,3.096181393,
221.0114899,0.0004015734303,221.0114899,2.612567425,221.0114899,2.60376215,
219.9855499,-0.005815620068,219.9855499,2.35076189,219.9855499,2.39308238,
218.9989929,0.001483830623,218.9989929,2.464274645,218.9989929,2.166210413,
218.0123901,0.01110668387,218.0123901,2.073200464,218.0123901,1.988809109,
216.9862061,0.006646921393,216.9862061,1.674305677,216.9862061,2.043882847,
215.9994202,0.02054307796,215.9994202,1.640310168,215.9994202,1.709333181,
215.0125275,-0.0113819968,215.0125275,1.421200514,215.0125275,1.513253927,
213.9861145,-0.006304926705,213.9861145,1.372485518,213.9861145,1.330649972,
212.999054,-0.004667181056,212.999054,1.068547368,212.999054,1.616260648,
212.0119629,-0.02515157312,212.0119629,10,212.0119629,0.7912127972,
210.98526,0.0006739979726,210.98526,0.781065464,210.98526,0.7136440277,
209.9979858,0.1305153966,209.9979858,0.4175670147,209.9979858,10,
209.0106049,-0.2399932146,209.0106049,0.6096766591,209.0106049,0.377499491,
207.9836884,-0.1173909679,207.9836884,0.6021748185,207.9836884,0.2967496812,
206.9961395,-0.1312651634,206.9961395,0.1696425825,206.9961395,-0.02754782699,
206.0085602,-0.1655470133,206.0085602,0.1880179942,206.0085602,0.02745836414,
204.9813538,-0.08702824265,204.9813538,10,204.9813538,10,
203.9936066,-0.1057222486,203.9936066,-0.1730607897,203.9936066,0.5448430777,
203.0057373,0.02694705874,203.0057373,0.2098740935,203.0057373,0.3148273528,
202.0178375,-0.08927025646,202.0178375,0.2782103121,202.0178375,0.4496608078,
200.9903259,0.09311646968,200.9903259,-0.07705119997,200.9903259,0.01939500682,
200.0022583,0.3590233028,200.0022583,0.3908727169,200.0022583,-0.01768893749,

baseline,
baseline
Collection Time: 03/03/2021 09:47:50
Operator Name  :
Scan Version 5.0.0.999
Parameter List :
Instrument  Cary 60
Instrument Version  2.00
Start (nm)  800.0
Stop (nm)  200.0
X Mode  Nanometers
Y Mode  Abs
UV-Vis Scan Rate (nm/min)  4800.000
UV-Vis Data Interval (nm)  1.00
UV-Vis Ave. Time (sec)  0.0125
Beam Mode  Dual Beam
Baseline Correction  On
Baseline Type  Baseline correction
Baseline File Name
Baseline Std Ref File Name
Cycle Mode  Off
Method Log     :
Method Name    :
Date/Time stamp: 03/03/2021 09:46:56
Method Modifications:
Common Interval nm Changed: 03/03/2021 09:47:33, Old:     5.00, New:     1.00
Baseline Correction Changed: 03/03/2021 09:47:33, Old:0, New:1
Storage Changed: 03/03/2021 09:47:33, Old:1, New:0
End Method Modifications
<Current Wavelength> , 246.0

bm3wt-0.5%1,
bm3wt-0.5%1
Collection Time: 03/03/2021 09:48:36
Operator Name  :
Scan Version 5.0.0.999
Parameter List :
Instrument  Cary 60
Instrument Version  2.00
Start (nm)  800.0
Stop (nm)  200.0
X Mode  Nanometers
Y Mode  Abs
UV-Vis Scan Rate (nm/min)  4800.000
UV-Vis Data Interval (nm)  1.00
UV-Vis Ave. Time (sec)  0.0125
Beam Mode  Dual Beam
Baseline Correction  On
Baseline Type  Baseline correction
Baseline File Name
Baseline Std Ref File Name
Cycle Mode  Off
Method Log     :
Method Name    :
Date/Time stamp: 03/03/2021 09:46:56
Method Modifications:
Common Interval nm Changed: 03/03/2021 09:47:33, Old:     5.00, New:     1.00
Baseline Correction Changed: 03/03/2021 09:47:33, Old:0, New:1
Storage Changed: 03/03/2021 09:47:33, Old:1, New:0
End Method Modifications
<Current Wavelength> , 238.0

bm3dm-0.5%,
bm3dm-0.5%
Collection Time: 03/03/2021 09:49:09
Operator Name  :
Scan Version 5.0.0.999
Parameter List :
Instrument  Cary 60
Instrument Version  2.00
Start (nm)  800.0
Stop (nm)  200.0
X Mode  Nanometers
Y Mode  Abs
UV-Vis Scan Rate (nm/min)  4800.000
UV-Vis Data Interval (nm)  1.00
UV-Vis Ave. Time (sec)  0.0125
Beam Mode  Dual Beam
Baseline Correction  On
Baseline Type  Baseline correction
Baseline File Name
Baseline Std Ref File Name
Cycle Mode  Off
Method Log     :
Method Name    :
Date/Time stamp: 03/03/2021 09:46:56
Method Modifications:
Common Interval nm Changed: 03/03/2021 09:47:33, Old:     5.00, New:     1.00
Baseline Correction Changed: 03/03/2021 09:47:33, Old:0, New:1
Storage Changed: 03/03/2021 09:47:33, Old:1, New:0
End Method Modifications
<Current Wavelength> , 248.0

