blank,,wt,,a82f,,dm,,
Wavelength (nm),Abs,Wavelength (nm),Abs,Wavelength (nm),Abs,Wavelength (nm),Abs,
800.0085449,0.0003240578808,800.0085449,0.007053560112,800.0085449,0.01821287163,800.0085449,0.01380258054,
797.9984131,-0.0001297728595,797.9984131,0.008000245318,797.9984131,0.0191166997,797.9984131,0.01524321921,
795.9866333,3.251399175E-005,795.9866333,0.006270759273,795.9866333,0.01988337561,795.9866333,0.01478007063,
794.0080566,0.0006419025594,794.0080566,0.008000798523,794.0080566,0.01948842965,794.0080566,0.01612049155,
791.993103,-0.0003481819876,791.993103,0.008505999111,791.993103,0.01808094233,791.993103,0.01671862043,
790.0113525,0.0007811899995,790.0113525,0.007227608003,790.0113525,0.01867834665,790.0113525,0.01533540338,
787.9932251,0.002217113739,787.9932251,0.007558423094,787.9932251,0.01958108693,787.9932251,0.01724619046,
786.0083618,-0.0002143864403,786.0083618,0.008961867541,786.0083618,0.01954469271,786.0083618,0.01561285369,
783.9870605,0.001155428588,783.9870605,0.008853456005,783.9870605,0.02019116282,783.9870605,0.01596822031,
781.9990845,-0.0008757189498,781.9990845,0.007102314848,781.9990845,0.01952189393,781.9990845,0.01517343614,
780.0095825,-0.0007426543743,780.0095825,0.007888093591,780.0095825,0.01944070123,780.0095825,0.01584027335,
777.9835815,0.0007567622233,777.9835815,0.008103774861,777.9835815,0.01944259554,777.9835815,0.01587321609,
775.9909668,0.000583602814,775.9909668,0.008603233844,775.9909668,0.01997321658,775.9909668,0.01624139957,
773.9967651,0.0007580068777,773.9967651,0.007450914942,773.9967651,0.02081429027,773.9967651,0.01633199677,
772.0011597,-0.0001499574137,772.0011597,0.007644011639,772.0011597,0.01986687258,772.0011597,0.0163591709,
770.0040283,0.0009141666233,770.0040283,0.009416997433,770.0040283,0.02122539468,770.0040283,0.01754623838,
768.0054321,0.0008246551733,768.0054321,0.007887697779,768.0054321,0.02033453248,768.0054321,0.01587990299,
766.0053101,0.0006767461309,766.0053101,0.007301732432,766.0053101,0.01977515779,766.0053101,0.01646629907,
764.0036011,6.598834443E-005,764.0036011,0.00866832491,764.0036011,0.02026907913,764.0036011,0.01753553748,
762.0004272,0.001230418799,762.0004272,0.008952037431,762.0004272,0.02131371945,762.0004272,0.01797198318,
759.9957886,-0.0001800254831,759.9957886,0.008731628768,759.9957886,0.02138860151,759.9957886,0.01853584684,
757.989624,-0.0005596045521,757.989624,0.007693386171,757.989624,0.01943109185,757.989624,0.01764371246,
756.0172729,1.858652286E-005,756.0172729,0.008254789747,756.0172729,0.02074146271,756.0172729,0.01787047088,
754.0081177,0.0008788889972,754.0081177,0.008976956829,754.0081177,0.02114366367,754.0081177,0.01706670783,
751.9976196,-0.0001103119866,751.9976196,0.008427657187,751.9976196,0.02032777667,751.9976196,0.01690471359,
749.9855347,0.0005254404969,749.9855347,0.008709655143,749.9855347,0.02085318044,749.9855347,0.0181973502,
748.0074463,0.001319416799,748.0074463,0.00845257286,748.0074463,0.02122207917,748.0074463,0.0187174771,
745.9924927,-0.0003107275115,745.9924927,0.008454289287,745.9924927,0.02082721703,745.9924927,0.01772745512,
744.0114746,0.0004214986111,744.0114746,0.008509351872,744.0114746,0.02157423273,744.0114746,0.01778470539,
741.9935913,0.001288987231,741.9935913,0.008619367145,741.9935913,0.02106412314,741.9935913,0.01849621907,
740.0097656,0.0006828907644,740.0097656,0.008778459392,740.0097656,0.02209313959,740.0097656,0.01894087903,
737.9890747,0.0009379547555,737.9890747,0.008603550494,737.9890747,0.02199245617,737.9890747,0.01900280453,
736.0024414,0.0008535219822,736.0024414,0.00885308627,736.0024414,0.02170363627,736.0024414,0.01909689978,
734.0143433,-0.0002838762884,734.0143433,0.008419501595,734.0143433,0.02123988234,734.0143433,0.0188087821,
731.9893799,-4.798993541E-005,731.9893799,0.008495731279,731.9893799,0.02129615657,731.9893799,0.01917667687,
729.9984741,8.874616469E-005,729.9984741,0.008445473388,729.9984741,0.02180553041,729.9984741,0.01963151246,
728.0062866,0.0006925096386,728.0062866,0.008610997349,728.0062866,0.02212315425,728.0062866,0.01923741773,
726.0126343,0.0004571019381,726.0126343,0.008967548609,726.0126343,0.02199542336,726.0126343,0.01903541945,
724.0177002,0.0007079366478,724.0177002,0.008572554216,724.0177002,0.02215140313,724.0177002,0.01973230019,
721.9855957,0.000981461606,721.9855957,0.01005650312,721.9855957,0.02257465385,721.9855957,0.02030458488,
719.987854,-8.743399667E-005,719.987854,0.008582428098,719.987854,0.02218283899,719.987854,0.01956727728,
717.9887695,0.0005300019402,717.9887695,0.009740166366,717.9887695,0.02241225541,717.9887695,0.02021239698,
715.9882813,0.0005260625039,715.9882813,0.009042367339,715.9882813,0.02251726016,715.9882813,0.02002935298,
713.9865112,0.0002358075144,713.9865112,0.008776425384,713.9865112,0.02323032357,713.9865112,0.02098223381,
711.9833374,0.0002704113431,711.9833374,0.009077997878,711.9833374,0.02262785658,711.9833374,0.02014173009,
710.0146484,2.870848766E-005,710.0146484,0.009209071286,710.0146484,0.0231742356,710.0146484,0.02070426568,
708.0087891,0.0003634875175,708.0087891,0.01077559777,708.0087891,0.02331326716,708.0087891,0.02079709992,
706.0015869,-0.0001878397306,706.0015869,0.009940085001,706.0015869,0.02263688296,706.0015869,0.02135757543,
703.993103,-0.0003499925369,703.993103,0.009565161541,703.993103,0.02287188545,703.993103,0.02090698667,
701.9832764,0.000631740375,701.9832764,0.009319739416,701.9832764,0.02380412258,701.9832764,0.02059041336,
700.0079956,0.0001527540735,700.0079956,0.009833971038,700.0079956,0.02262322046,700.0079956,0.02062681317,
697.9956055,3.228100104E-005,697.9956055,0.01065500733,697.9956055,0.02354144864,697.9956055,0.02208450437,
696.0177612,0.001427443465,696.0177612,0.01024927758,696.0177612,0.02440567687,696.0177612,0.02129691839,
694.0026855,0.0003151465498,694.0026855,0.009763622656,694.0026855,0.02325124107,694.0026855,0.0219256375,
691.9862671,1.351268565E-005,691.9862671,0.0105159115,691.9862671,0.02380677499,691.9862671,0.02184157073,
690.0046387,-1.289102056E-005,690.0046387,0.01017560251,690.0046387,0.02369232476,690.0046387,0.02172164991,
687.9856567,0.0005070655025,687.9856567,0.009188738652,687.9856567,0.0243181996,687.9856567,0.02178223245,
686.0014038,0.0007960496005,686.0014038,0.01021087542,686.0014038,0.02360381559,686.0014038,0.02256958187,
684.0159302,-3.893074972E-005,684.0159302,0.0107278619,684.0159302,0.02396876551,684.0159302,0.02208545804,
681.993103,0.0006724683335,681.993103,0.0103260139,681.993103,0.02342368104,681.993103,0.02217066288,
680.005127,0.000157078568,680.005127,0.009734792635,680.005127,0.02344406396,680.005127,0.02141092718,
678.0159302,5.674575004E-005,678.0159302,0.01118277572,678.0159302,0.02413103729,678.0159302,0.02232226171,
675.9893188,-0.0004232880892,675.9893188,0.0107490886,675.9893188,0.02441096306,675.9893188,0.02183424681,
673.9976196,0.001129214885,673.9976196,0.01068066154,673.9976196,0.02492781542,673.9976196,0.02297921479,
672.0046997,0.0007602628903,672.0046997,0.01116867177,672.0046997,0.02470356226,672.0046997,0.0232801903,
670.0105591,-1.713617348E-005,670.0105591,0.01068827603,670.0105591,0.02441255003,670.0105591,0.02222329564,
668.0151367,-1.413350856E-005,668.0151367,0.01085571852,668.0151367,0.02453811839,668.0151367,0.02285215817,
665.9822998,0.001341097872,665.9822998,0.01108488161,665.9822998,0.02567522228,665.9822998,0.02397016063,
663.984436,-0.0001354142732,663.984436,0.01127115358,663.984436,0.02562304772,663.984436,0.02401707694,
661.9853516,-8.303424693E-005,661.9853516,0.01059866324,661.9853516,0.02504324913,661.9853516,0.02292504162,
659.9850464,0.0004798802547,659.9850464,0.011366033,659.9850464,0.02616795897,659.9850464,0.02369697206,
657.9836426,-0.0001233549992,657.9836426,0.01144525222,657.9836426,0.02593369409,657.9836426,0.02452004142,
656.0174561,0.0005654845736,656.0174561,0.01090479549,656.0174561,0.02665475942,656.0174561,0.02478593774,
654.0136108,0.0002194908157,654.0136108,0.01080937963,654.0136108,0.02609411813,654.0136108,0.02384371869,
652.0085449,-0.0005406800192,652.0085449,0.01122896746,652.0085449,0.02567659691,652.0085449,0.02331613377,
650.0023804,-0.0002444500569,650.0023804,0.01055290923,650.0023804,0.02531388402,650.0023804,0.02364927158,
647.9949951,0.0001046178004,647.9949951,0.01103814691,647.9949951,0.02681443095,647.9949951,0.02484565973,
645.9864502,-5.61171546E-005,645.9864502,0.0105424067,645.9864502,0.02552401274,645.9864502,0.02399218269,
644.0131836,0.0002482915006,644.0131836,0.01037325524,644.0131836,0.02616570517,644.0131836,0.02400287986,
642.0022583,0.000795919972,642.0022583,0.01093837526,642.0022583,0.02647792362,642.0022583,0.02458608337,
639.9902344,0.0002122132428,639.9902344,0.01092611067,639.9902344,0.02717801183,639.9902344,0.02470317855,
638.0136108,0.0009313396295,638.0136108,0.01179432496,638.0136108,0.02681558765,638.0136108,0.02481400222,
635.9991455,0.0006512354012,635.9991455,0.01107295882,635.9991455,0.02662393264,635.9991455,0.02557878569,
633.9835815,0.0002644539054,633.9835815,0.01154774614,633.9835815,0.02738747373,633.9835815,0.02506003343,
632.0036011,0.0004782476462,632.0036011,0.01197044365,632.0036011,0.02696730196,632.0036011,0.02562312968,
629.9857788,-8.764104859E-005,629.9857788,0.01125930529,629.9857788,0.02645800449,629.9857788,0.0248164963,
628.003418,0.0009214300662,628.003418,0.01182116382,628.003418,0.027448548,628.003418,0.02582324296,
625.9833984,8.178147255E-005,625.9833984,0.01201847661,625.9833984,0.02738502063,625.9833984,0.02655271068,
623.9988403,0.0002419717639,623.9988403,0.01209227834,623.9988403,0.02733564377,623.9988403,0.02556527779,
622.0132446,0.0007059661439,622.0132446,0.01253357064,622.0132446,0.02785118856,622.0132446,0.02606569603,
619.9897461,4.535458356E-005,619.9897461,0.01107585337,619.9897461,0.02693612315,619.9897461,0.02493181825,
618.0018921,0.0004963363172,618.0018921,0.0127107352,618.0018921,0.02734672651,618.0018921,0.0264116209,
616.0130615,0.0004025320814,616.0130615,0.01160253864,616.0130615,0.02765987813,616.0130615,0.02601171285,
613.9862061,0.0002589109645,613.9862061,0.01278745476,613.9862061,0.02760765702,613.9862061,0.02739279531,
611.9951782,0.0007738511194,611.9951782,0.01238697395,611.9951782,0.02856897935,611.9951782,0.02715260535,
610.0030518,0.0004861775378,610.0030518,0.0126198791,610.0030518,0.02913872339,610.0030518,0.02876478434,
608.0097656,0.000344963948,608.0097656,0.01290514506,608.0097656,0.02984167635,608.0097656,0.02893010341,
606.0154419,0.0002014395432,606.0154419,0.01298846025,606.0154419,0.02939530276,606.0154419,0.02957477234,
603.9832153,0.0001853830909,603.9832153,0.01280227769,603.9832153,0.03115265444,603.9832153,0.03082496859,
601.9867554,0.0008073308272,601.9867554,0.01367930323,601.9867554,0.03246740624,601.9867554,0.03211002052,
599.9892578,0.0004197625676,599.9892578,0.01324191689,599.9892578,0.03190397844,599.9892578,0.0325227268,
597.9907227,3.342007039E-005,597.9907227,0.01295978948,597.9907227,0.03261630982,597.9907227,0.03313123807,
595.9910889,0.0005967189209,595.9910889,0.01417476218,595.9910889,0.03536067531,595.9910889,0.03671393916,
593.9904175,0.001056084409,593.9904175,0.01436121296,593.9904175,0.03728446364,593.9904175,0.03851957247,
591.9887085,0.0004998090444,591.9887085,0.01580000482,591.9887085,0.03819052503,591.9887085,0.04069213569,
589.9860229,0.0005007938016,589.9860229,0.01632492803,589.9860229,0.04014094174,589.9860229,0.04328894243,
587.9821777,0.000303955836,587.9821777,0.01685097069,587.9821777,0.04307224229,587.9821777,0.04686810449,
586.0145264,0.0002834661864,586.0145264,0.01741922647,586.0145264,0.04532723129,586.0145264,0.0507902801,
584.008667,-0.0004825569049,584.008667,0.0181362126,584.008667,0.0489914231,584.008667,0.05496105179,
582.0018921,0.0001111426827,582.0018921,0.02069031075,582.0018921,0.05389616266,582.0018921,0.05997988582,
579.9940186,0.0002217699366,579.9940186,0.02176271752,579.9940186,0.05697869509,579.9940186,0.06574776769,
577.9851685,9.265576227E-005,577.9851685,0.02294370718,577.9851685,0.06031025946,577.9851685,0.0706256777,
576.0124512,0.0004337288265,576.0124512,0.02422734536,576.0124512,0.06367195398,576.0124512,0.07615672052,
574.0015259,0.0004790509702,574.0015259,0.0252122879,574.0015259,0.06681504101,574.0015259,0.08064069599,
571.989563,-0.0001440573978,571.989563,0.02612845227,571.989563,0.06878816336,571.989563,0.0833671838,
570.0139771,0.0001599788666,570.0139771,0.02666400746,570.0139771,0.06981156021,570.0139771,0.08594425023,
568.000061,0.0002310937416,568.000061,0.02611767687,568.000061,0.06928331405,568.000061,0.08561220765,
565.9851685,0.0001377092995,565.9851685,0.026798103,565.9851685,0.07013982534,565.9851685,0.08716236055,
564.0065918,6.280389789E-005,564.0065918,0.02642884292,564.0065918,0.06963633746,564.0065918,0.08563541621,
561.9897461,6.376182137E-005,561.9897461,0.0253112223,561.9897461,0.06722326577,561.9897461,0.08300429583,
560.0092773,0.0001865484664,560.0092773,0.02507412806,560.0092773,0.06634319574,560.0092773,0.08148609847,
557.9904175,0.0002293066646,557.9904175,0.02466090024,557.9904175,0.06562496722,557.9904175,0.08007692546,
556.0079956,0.0002520471462,556.0079956,0.0243456047,556.0079956,0.06462281942,556.0079956,0.07855469733,
553.9872437,0.0005093979416,553.9872437,0.02431642078,553.9872437,0.06426487118,553.9872437,0.07761496305,
552.0029907,0.0007091552834,552.0029907,0.02417022549,552.0029907,0.0652166456,552.0029907,0.07850882411,
550.0177002,1.672265716E-005,550.0177002,0.02409814671,550.0177002,0.06502526253,550.0177002,0.07737468928,
547.9940796,0.0005632036482,547.9940796,0.02464372292,547.9940796,0.06582134962,547.9940796,0.07873309404,
546.006958,0.000740425894,546.006958,0.02580599114,546.006958,0.0678851828,546.006958,0.08111292124,
543.9814453,0.0002035890793,543.9814453,0.02563705109,543.9814453,0.06747005135,543.9814453,0.08069174737,
541.9924316,0.0003646015539,541.9924316,0.02596290596,541.9924316,0.06863863766,541.9924316,0.08302611113,
540.0025635,0.0006261668168,540.0025635,0.02784359828,540.0025635,0.07111168653,540.0025635,0.08541014045,
538.0116577,0.0001579590171,538.0116577,0.02677921578,538.0116577,0.06991152465,538.0116577,0.08425167203,
535.9824219,0.0002119801502,535.9824219,0.02693684027,535.9824219,0.07140223682,535.9824219,0.08604004979,
533.9897461,0.0005082317512,533.9897461,0.02697592415,533.9897461,0.06908721477,533.9897461,0.08462088555,
531.9962158,0.000568698626,531.9962158,0.02801836841,531.9962158,0.0703695491,531.9962158,0.08415032923,
530.00177,-3.535879296E-005,530.00177,0.02597040683,530.00177,0.06733131409,530.00177,0.08158513159,
528.0064697,0.0001549292647,528.0064697,0.02708939649,528.0064697,0.06933314353,528.0064697,0.08302617073,
526.0101929,0.0003699644876,526.0101929,0.02606261708,526.0101929,0.0665570125,526.0101929,0.08010468632,
524.0130615,0.001253107912,524.0130615,0.02683954313,524.0130615,0.06540252268,524.0130615,0.07931941748,
522.0150146,0.0006410470814,522.0150146,0.02543232962,522.0150146,0.06370081753,522.0150146,0.0753101036,
520.0161133,0.0008439772646,520.0161133,0.02467605285,520.0161133,0.06200685725,520.0161133,0.07289600372,
518.0163574,0.0004827049561,518.0163574,0.02441778034,518.0163574,0.06106395647,518.0163574,0.07167045772,
516.015686,0.0002900455729,516.015686,0.02394896187,516.015686,0.0592728667,516.015686,0.06871561706,
514.0140991,-0.0003401119611,514.0140991,0.02313672006,514.0140991,0.05728286505,514.0140991,0.06595876068,
512.0117188,0.0006368733011,512.0117188,0.0234025903,512.0117188,0.05688030273,512.0117188,0.06521045417,
510.0083923,-0.000102444581,510.0083923,0.02236153185,510.0083923,0.05587908998,510.0083923,0.06361296773,
508.0043335,0.0004252298095,508.0043335,0.0226579085,508.0043335,0.0549861677,508.0043335,0.0621513091,
505.9992981,0.0004320704611,505.9992981,0.0225220602,505.9992981,0.05460043624,505.9992981,0.06134947762,
503.9934387,0.0006002442678,503.9934387,0.02244122885,503.9934387,0.05428434908,503.9934387,0.05994898081,
501.9866943,0.0002605168556,501.9866943,0.02233899385,501.9866943,0.05354456976,501.9866943,0.0603155829,
500.0170593,0.0006822166615,500.0170593,0.02223934419,500.0170593,0.05308487266,500.0170593,0.05976530537,
498.008606,0.0002373356256,498.008606,0.02152080648,498.008606,0.05322840437,498.008606,0.05936224759,
495.9993591,0.0004186224833,495.9993591,0.02196204104,495.9993591,0.0535903424,495.9993591,0.06066618115,
493.9892883,0.000245805044,493.9892883,0.02193018422,493.9892883,0.0527141504,493.9892883,0.05905353278,
492.0163269,1.568717926E-005,492.0163269,0.02175172232,492.0163269,0.05267013609,492.0163269,0.05922489241,
490.0046082,0.0002740376513,490.0046082,0.02210479602,490.0046082,0.05399672315,490.0046082,0.05987647548,
487.9919739,0.0001878692128,487.9919739,0.02194828913,487.9919739,0.05337658152,487.9919739,0.06017643958,
486.0166016,-0.0003686150303,486.0166016,0.02339742705,486.0166016,0.05503846705,486.0166016,0.06105618179,
484.0023804,0.000891495205,484.0023804,0.02334620804,484.0023804,0.05623528734,484.0023804,0.06292514503,
481.9874268,-0.0001332922839,481.9874268,0.02379900776,481.9874268,0.05604584143,481.9874268,0.06287135184,
480.009613,-0.0003100032336,480.009613,0.02350054123,480.009613,0.05632761121,480.009613,0.06390601397,
477.9929199,-7.371698302E-005,477.9929199,0.02389174141,477.9929199,0.05758494511,477.9929199,0.06508059055,
476.0135498,0.0005181318847,476.0135498,0.02472170256,476.0135498,0.05940501392,476.0135498,0.06658218056,
473.9953308,-5.798069833E-005,473.9953308,0.02436307259,473.9953308,0.05962339789,473.9953308,0.06775391102,
472.0143738,-0.0002369472786,472.0143738,0.02528625354,472.0143738,0.06179508939,472.0143738,0.07008576393,
469.9945374,0.0001513557363,469.9945374,0.02576874197,469.9945374,0.06413865089,469.9945374,0.07289600372,
468.012085,0.0004017288738,468.012085,0.0263086129,468.012085,0.06612921506,468.012085,0.07611548156,
465.9906006,4.80470153E-005,465.9906006,0.02729371563,465.9906006,0.06953819841,465.9906006,0.07997642457,
464.0065613,3.109015961E-005,464.0065613,0.02848618664,464.0065613,0.07267730683,464.0065613,0.08418608457,
461.9836731,0.0002207339712,461.9836731,0.02916250192,461.9836731,0.07599138469,461.9836731,0.08884938061,
459.9980774,1.889716805E-005,459.9980774,0.03162266314,459.9980774,0.08114656061,459.9980774,0.09477368742,
458.0117798,0.0003754051868,458.0117798,0.03350132331,458.0117798,0.08659774065,458.0117798,0.1018828154,
455.9865112,0.0001783650514,455.9865112,0.03498322517,455.9865112,0.09226439893,455.9865112,0.1092718542,
453.9986877,0.0001741698361,453.9986877,0.03701655567,453.9986877,0.09858378023,453.9986877,0.1173094809,
452.0101013,0.0002211224491,452.0101013,0.03858715668,452.0101013,0.1065046564,452.0101013,0.1279720962,
449.9825745,0.0001522620732,449.9825745,0.0416563414,449.9825745,0.1146252975,449.9825745,0.1388750523,
447.9924927,0.0004938225029,447.9924927,0.04499895871,447.9924927,0.125221923,447.9924927,0.1513943523,
446.00177,-0.0004346666683,446.00177,0.04873348773,446.00177,0.1371420175,446.00177,0.1672838181,
444.0102234,-3.934488996E-005,444.0102234,0.05251317471,444.0102234,0.1502407789,444.0102234,0.184875071,
442.0180664,0.0002500009723,442.0180664,0.05741213262,442.0180664,0.1675204784,442.0180664,0.2071433663,
439.9867554,0.0004012366117,439.9867554,0.06371457875,439.9867554,0.1892347187,439.9867554,0.2352503687,
437.9930725,0.0002221584145,437.9930725,0.07127078623,437.9930725,0.213463217,437.9930725,0.265837878,
435.9986267,0.0003657932975,435.9986267,0.08025646955,435.9986267,0.2422982305,435.9986267,0.3059756756,
434.0035706,0.0005252072006,434.0035706,0.09134132415,434.0035706,0.2759675384,434.0035706,0.3497926593,
432.007782,0.0005934787332,432.007782,0.1042415202,432.007782,0.3131970763,432.007782,0.3986621499,
430.0112305,5.612440509E-005,430.0112305,0.1181275398,430.0112305,0.3545753658,430.0112305,0.4600437582,
428.0140381,-0.0001560125966,428.0140381,0.1333195418,428.0140381,0.3952457011,428.0140381,0.5163610578,
426.0160522,0.0007506425027,426.0160522,0.1495352685,426.0160522,0.4387903214,426.0160522,0.5806342959,
424.0175171,0.0003316740913,424.0175171,0.1629367769,424.0175171,0.4725585878,424.0175171,0.634072721,
422.0181885,0.0001594868518,422.0181885,0.1742351502,422.0181885,0.4996457696,422.0181885,0.678031683,
420.018219,0.0003906654892,420.018219,0.1812459379,420.018219,0.5146315694,420.018219,0.7066351175,
418.0174866,0.0004366827779,418.0174866,0.1823994815,418.0174866,0.5152719021,418.0174866,0.7141202688,
416.0161743,0.0001919609931,416.0161743,0.1793921441,416.0161743,0.5015435815,416.0161743,0.7012893558,
414.0140991,0.0003649901773,414.0140991,0.1722314209,414.0140991,0.4791912436,414.0140991,0.671692729,
412.0114136,-0.0002963967272,412.0114136,0.1619565636,412.0114136,0.4497668147,412.0114136,0.6301991343,
410.0080261,0.0002769128187,410.0080261,0.1506934315,410.0080261,0.4179466963,410.0080261,0.5852475762,
408.0039063,0.0002725871163,408.0039063,0.1388386935,408.0039063,0.3859460354,408.0039063,0.5369917154,
405.9992676,-3.266686326E-005,405.9992676,0.1280834377,405.9992676,0.3539688587,405.9992676,0.4901169837,
403.9938354,0.0005306239473,403.9938354,0.1182914451,403.9938354,0.3301524818,403.9938354,0.4527705312,
401.9878235,0.0003216227924,401.9878235,0.1094026044,401.9878235,0.3059386909,401.9878235,0.4156531096,
399.9810791,-3.313277557E-005,399.9810791,0.1006386951,399.9810791,0.2839731872,399.9810791,0.3825843036,
398.0123596,0.0006076579448,398.0123596,0.09571442753,398.0123596,0.2692454159,398.0123596,0.3559907675,
396.004364,0.0002851757745,396.004364,0.08880450577,396.004364,0.251157701,396.004364,0.329945296,
393.9957581,-0.0001994832273,393.9957581,0.08411365747,393.9957581,0.2376200557,393.9957581,0.3102262318,
391.9864502,0.0004268104094,391.9864502,0.07933308929,391.9864502,0.2237701714,391.9864502,0.2899219394,
390.0151672,0.0005156179541,390.0151672,0.07548116148,390.0151672,0.2144560814,390.0151672,0.2743973434,
388.0046387,0.0002766019898,388.0046387,0.07255179435,388.0046387,0.2027615905,388.0046387,0.2581480742,
385.9934692,0.0002438883967,385.9934692,0.06897638738,385.9934692,0.1944571733,385.9934692,0.2455046922,
383.9816589,0.000591119926,383.9816589,0.06660674512,383.9816589,0.1875976324,383.9816589,0.2334280163,
382.0079041,0.0003749647585,382.0079041,0.06553001702,382.0079041,0.1825735718,382.0079041,0.2270881236,
379.994873,-5.254533608E-005,379.994873,0.06364171207,379.994873,0.1781125665,379.994873,0.2209046632,
377.9812012,0.0006053767866,377.9812012,0.06310328096,377.9812012,0.1750635803,377.9812012,0.2157816589,
376.0056763,0.0002358852216,376.0056763,0.06350829452,376.0056763,0.1767654568,376.0056763,0.2148992419,
373.9908142,3.989211109E-005,373.9908142,0.06412625313,373.9908142,0.1774532795,373.9908142,0.2154049575,
372.0140686,0.0001897338079,372.0140686,0.06471910328,372.0140686,0.1795862913,372.0140686,0.2167873532,
369.9979858,0.000369446323,369.9979858,0.06530674547,369.9979858,0.182738781,369.9979858,0.2197330147,
367.9812927,0.0003232807212,367.9812927,0.06597325206,367.9812927,0.1851767004,367.9812927,0.2209521979,
366.0028076,0.0001120489251,366.0028076,0.06800187379,366.0028076,0.1884009093,366.0028076,0.2260777056,
363.9848938,0.0002601542219,363.9848938,0.06872832775,363.9848938,0.1901178658,363.9848938,0.2297340333,
362.005249,-0.001100569963,362.005249,0.06820372492,362.005249,0.1916376352,362.005249,0.2288006097,
359.9861755,0.0002988009655,359.9861755,0.07128298283,359.9861755,0.1935038567,359.9861755,0.2336368114,
358.0054016,0.0002511664934,358.0054016,0.07064377517,358.0054016,0.1919671595,358.0054016,0.231912896,
355.985199,0.000371078524,355.985199,0.07174477726,355.985199,0.191846475,355.985199,0.2311918736,
354.0032349,0.0004671822826,354.0032349,0.07143738866,354.0032349,0.1903187186,354.0032349,0.228249684,
351.9818726,0.0004153058981,351.9818726,0.0716471374,351.9818726,0.1880592704,351.9818726,0.2242794335,
349.9988098,0.0002438625088,349.9988098,0.07017116249,349.9988098,0.1842310131,349.9988098,0.2176221311,
348.0152283,0.0004198403039,348.0152283,0.06829135865,348.0152283,0.1791488081,348.0152283,0.2114809901,
345.9921875,0.0006883353926,345.9921875,0.06736347824,345.9921875,0.1736102253,345.9921875,0.2043179274,
344.0074768,-6.967943773E-005,344.0074768,0.06610827148,344.0074768,0.1687593311,344.0074768,0.197038278,
341.9833069,0.0004993425682,341.9833069,0.06489960104,341.9833069,0.1623633951,341.9833069,0.1892741919,
339.9975281,-0.0002402071113,339.9975281,0.06383302808,339.9975281,0.1568976194,339.9975281,0.182540074,
338.0112,0.000329679373,338.0112,0.06298978627,338.0112,0.1530079544,338.0112,0.1756897867,
335.9853821,0.0002322074288,335.9853821,0.06167537346,335.9853821,0.1473798305,335.9853821,0.1673185229,
333.9979858,0.0004957661731,333.9979858,0.06092475355,333.9979858,0.1413047165,333.9979858,0.1590720415,
332.0100708,-0.0001148667361,332.0100708,0.0592251271,332.0100708,0.1371235251,332.0100708,0.152980268,
329.9826355,0.0002379831276,329.9826355,0.05941848829,329.9826355,0.1308040619,329.9826355,0.1448366046,
327.9936829,-0.0001042044096,327.9936829,0.05666777864,327.9936829,0.1262979358,327.9936829,0.1381096691,
326.0041809,-3.867191481E-005,326.0041809,0.05638089776,326.0041809,0.1216735318,326.0041809,0.1316345632,
324.0142212,0.0004260071728,324.0142212,0.05592404678,324.0142212,0.1180121303,324.0142212,0.1253262311,
321.9846802,-0.0001870117412,321.9846802,0.05510099977,321.9846802,0.1146254987,321.9846802,0.1204948425,
319.9936523,-0.0002043992718,319.9936523,0.05449140072,319.9936523,0.1108938828,319.9936523,0.115892075,
318.0021667,-4.182970952E-005,318.0021667,0.05495728925,318.0021667,0.11033272,318.0021667,0.1136769354,
316.0101013,-1.050957599E-005,316.0101013,0.05500591174,316.0101013,0.1081557497,316.0101013,0.1103447378,
314.0176392,-0.001541411155,314.0176392,0.05657320097,314.0176392,0.1108255908,314.0176392,0.1128820851,
311.9855347,0.0001132399848,311.9855347,0.0568401441,311.9855347,0.1110412776,311.9855347,0.1119779944,
309.9920044,0.0002434740018,309.9920044,0.05925551057,309.9920044,0.1159614101,309.9920044,0.1161894426,
307.9980164,0.0001330483647,307.9980164,0.06177031994,307.9980164,0.1229198799,307.9980164,0.1225294769,
306.00354,0.0007353436085,306.00354,0.06744153798,306.00354,0.1341928542,306.00354,0.1318998486,
304.0085754,8.141899889E-005,304.0085754,0.07389532775,304.0085754,0.1525318623,304.0085754,0.144167006,
302.0131531,0.001715117716,302.0131531,0.08592941612,302.0131531,0.1851751953,302.0131531,0.164833352,
300.0172119,0.0004689444322,300.0172119,0.09577609599,300.0172119,0.2191757858,300.0172119,0.1862313151,
297.9816895,0.0006395175005,297.9816895,0.1137456819,297.9816895,0.2699685991,297.9816895,0.2141947001,
295.9848633,7.939952047E-005,295.9848633,0.1386422366,295.9848633,0.3363569081,295.9848633,0.2469056398,
293.9875183,0.002348579001,293.9875183,0.1628496796,293.9875183,0.4185735881,293.9875183,0.3012083471,
291.9896851,-0.006477563642,291.9896851,0.2112660259,291.9896851,0.5205629468,291.9896851,0.328597486,
289.9914856,0.0003740579705,289.9914856,0.2328230441,289.9914856,0.5960019231,289.9914856,0.3714585304,
287.9927673,-0.004454008769,287.9927673,0.2538701594,287.9927673,0.6532299519,287.9927673,0.3955630064,
285.9936523,0.002844742034,285.9936523,0.2816789448,285.9936523,0.7627269626,285.9936523,0.4530176818,
283.9940186,-0.0001437986357,283.9940186,0.3045780063,283.9940186,0.8244243264,283.9940186,0.4814055264,
281.993988,-0.0021926919,281.993988,0.316296041,281.993988,0.8474045992,281.993988,0.4949007034,
279.9934692,0.0004079473147,279.9934692,0.3210557103,279.9934692,0.8565217853,279.9934692,0.4979043603,
277.9925537,0.0007683535805,277.9925537,0.3246482015,277.9925537,0.8697023392,277.9925537,0.4982633591,
275.9911804,0.0001298634306,275.9911804,0.3184439838,275.9911804,0.8566634059,275.9911804,0.4867598116,
273.9893494,-4.193506811E-006,273.9893494,0.3110771179,273.9893494,0.8379986286,273.9893494,0.4765175879,
271.9871521,0.000406548148,271.9871521,0.2997121811,271.9871521,0.7930819988,271.9871521,0.4561540484,
269.9844666,-0.001647206256,269.9844666,0.2909055352,269.9844666,0.757932961,269.9844666,0.4416794777,
267.9814148,-0.00120538834,267.9814148,0.275652796,267.9814148,0.7277892828,267.9814148,0.4214827716,
266.0171814,0.0006342809065,266.0171814,0.2659470737,266.0171814,0.6863093376,266.0171814,0.4012251496,
264.0132446,0.002068521921,264.0132446,0.2490151823,264.0132446,0.6416461468,264.0132446,0.3782940209,
262.0089417,0.001173182041,262.0089417,0.2389534861,262.0089417,0.5934279561,262.0089417,0.3636945188,
260.0041809,7.574894698E-005,260.0041809,0.2293742001,260.0041809,0.5638979077,260.0041809,0.3493289948,
257.999054,-0.000317970349,257.999054,0.2194841951,257.999054,0.5283159018,257.999054,0.3379243314,
255.9934692,-5.559949932E-005,255.9934692,0.2080039531,255.9934692,0.4834547341,255.9934692,0.3174678683,
253.9875031,0.0004293497477,253.9875031,0.2018410563,253.9875031,0.4663234949,253.9875031,0.3124133646,
251.9811554,-0.0004381319159,251.9811554,0.2019733638,251.9811554,0.4585936666,251.9811554,0.313155055,
250.0137787,0.0004661457206,250.0137787,0.2029369324,250.0137787,0.4543780982,250.0137787,0.3160954416,
248.0066071,0.0001555507479,248.0066071,0.2160179317,248.0066071,0.4831496477,248.0066071,0.3366510272,
245.999115,0.003704113653,245.999115,0.2401027232,245.999115,0.5365187526,245.999115,0.3704523742,
243.9911652,0.007645908743,243.9911652,0.2846342325,243.9911652,0.669080615,243.9911652,0.4135088027,
241.9828949,0.0186950732,241.9828949,0.3279604018,241.9828949,0.8091621399,241.9828949,0.5019928813,
240.0135956,0.03118188493,240.0135956,0.4118562937,240.0135956,1.044781089,240.0135956,0.6449570656,
238.0045471,-0.001381921815,238.0045471,0.4726916254,238.0045471,1.108576536,238.0045471,0.7226186395,
235.9951324,0.03575447947,235.9951324,0.4341307878,235.9951324,0.6382896304,235.9951324,0.7334439754,
233.9853058,0.06344591826,233.9853058,0.5899634957,233.9853058,0.6374164224,233.9853058,0.377969563,
232.0145874,10,232.0145874,10,232.0145874,-0.3546774089,232.0145874,-0.5029284954,
230.0040436,3.432453871,230.0040436,3.613195658,230.0040436,4.516786575,230.0040436,3.43866396,
227.9931793,2.767155886,227.9931793,2.942008018,227.9931793,10,227.9931793,10,
225.9819183,-0.3004902005,225.9819183,-0.3233782649,225.9819183,-0.16452007,225.9819183,-0.04350727051,
224.0097961,-0.04404598102,224.0097961,0.2122073323,224.0097961,0.3666415513,224.0097961,-0.1354710311,
221.9978485,-0.02194183506,221.9978485,-0.1212770492,221.9978485,-0.06674153358,221.9978485,0.09849618375,
219.9855499,0.1495774984,219.9855499,-0.1820841581,219.9855499,0.2212726772,219.9855499,0.05883528665,
218.0123901,0.4078719616,218.0123901,0.1373236179,218.0123901,0.2764607668,218.0123901,0.05677007511,
215.9994202,-0.5720419884,215.9994202,-0.4593333304,215.9994202,0.4067692459,215.9994202,0.1460681558,
213.9861145,-0.04990309104,213.9861145,-0.2634005547,213.9861145,-0.2163718343,213.9861145,0.5600553155,
212.0119629,0.001815236639,212.0119629,0.8657993674,212.0119629,0.5686824322,212.0119629,0.238530457,
209.9979858,-0.2681881785,209.9979858,0.02278468944,209.9979858,0.002269231947,209.9979858,0.1819514185,
207.9836884,-0.1842678636,207.9836884,0.101940915,207.9836884,0.1311928034,207.9836884,0.1891603321,
206.0085602,0.3932025433,206.0085602,0.2656786442,206.0085602,0.598403275,206.0085602,10,
203.9936066,1.054879546,203.9936066,0.09162665904,203.9936066,0.03486105055,203.9936066,0.06245207042,
202.0178375,0.4861278832,202.0178375,-0.1688255817,202.0178375,0.1136115268,202.0178375,10,
200.0022583,-1.100225925,200.0022583,10,200.0022583,-1.254230738,200.0022583,-1.173565507,

blank,
blank
Collection Time: 12/03/2021 09:48:13
Operator Name  :
Scan Version 5.0.0.999
Parameter List :
Instrument  Cary 60
Instrument Version  2.00
Start (nm)  800.0
Stop (nm)  200.0
X Mode  Nanometers
Y Mode  Abs
UV-Vis Scan Rate (nm/min)  9600.000
UV-Vis Data Interval (nm)  2.00
UV-Vis Ave. Time (sec)  0.0125
Beam Mode  Dual Beam
Baseline Correction  On
Baseline Type  Baseline correction
Baseline File Name
Baseline Std Ref File Name
Cycle Mode  Off
Method Log     :
Method Name    :
Date/Time stamp: 12/03/2021 09:47:26
Method Modifications:
Common Interval nm Changed: 12/03/2021 09:47:53, Old:     5.00, New:     2.00
Baseline Correction Changed: 12/03/2021 09:47:53, Old:0, New:1
Storage Changed: 12/03/2021 09:47:53, Old:1, New:0
End Method Modifications
<Current Wavelength> , 316.0

wt,
wt
Collection Time: 12/03/2021 09:48:29
Operator Name  :
Scan Version 5.0.0.999
Parameter List :
Instrument  Cary 60
Instrument Version  2.00
Start (nm)  800.0
Stop (nm)  200.0
X Mode  Nanometers
Y Mode  Abs
UV-Vis Scan Rate (nm/min)  9600.000
UV-Vis Data Interval (nm)  2.00
UV-Vis Ave. Time (sec)  0.0125
Beam Mode  Dual Beam
Baseline Correction  On
Baseline Type  Baseline correction
Baseline File Name
Baseline Std Ref File Name
Cycle Mode  Off
Method Log     :
Method Name    :
Date/Time stamp: 12/03/2021 09:47:26
Method Modifications:
Common Interval nm Changed: 12/03/2021 09:47:53, Old:     5.00, New:     2.00
Baseline Correction Changed: 12/03/2021 09:47:53, Old:0, New:1
Storage Changed: 12/03/2021 09:47:53, Old:1, New:0
End Method Modifications
<Current Wavelength> , 206.1

a82f,
a82f
Collection Time: 12/03/2021 09:48:48
Operator Name  :
Scan Version 5.0.0.999
Parameter List :
Instrument  Cary 60
Instrument Version  2.00
Start (nm)  800.0
Stop (nm)  200.0
X Mode  Nanometers
Y Mode  Abs
UV-Vis Scan Rate (nm/min)  9600.000
UV-Vis Data Interval (nm)  2.00
UV-Vis Ave. Time (sec)  0.0125
Beam Mode  Dual Beam
Baseline Correction  On
Baseline Type  Baseline correction
Baseline File Name
Baseline Std Ref File Name
Cycle Mode  Off
Method Log     :
Method Name    :
Date/Time stamp: 12/03/2021 09:47:26
Method Modifications:
Common Interval nm Changed: 12/03/2021 09:47:53, Old:     5.00, New:     2.00
Baseline Correction Changed: 12/03/2021 09:47:53, Old:0, New:1
Storage Changed: 12/03/2021 09:47:53, Old:1, New:0
End Method Modifications
<Current Wavelength> , 242.0

dm,
dm
Collection Time: 12/03/2021 09:49:29
Operator Name  :
Scan Version 5.0.0.999
Parameter List :
Instrument  Cary 60
Instrument Version  2.00
Start (nm)  800.0
Stop (nm)  200.0
X Mode  Nanometers
Y Mode  Abs
UV-Vis Scan Rate (nm/min)  9600.000
UV-Vis Data Interval (nm)  2.00
UV-Vis Ave. Time (sec)  0.0125
Beam Mode  Dual Beam
Baseline Correction  On
Baseline Type  Baseline correction
Baseline File Name
Baseline Std Ref File Name
Cycle Mode  Off
Method Log     :
Method Name    :
Date/Time stamp: 12/03/2021 09:47:26
Method Modifications:
Common Interval nm Changed: 12/03/2021 09:47:53, Old:     5.00, New:     2.00
Baseline Correction Changed: 12/03/2021 09:47:53, Old:0, New:1
Storage Changed: 12/03/2021 09:47:53, Old:1, New:0
End Method Modifications
<Current Wavelength> , 222.0

