baseline,,wt,,a82f,,dm,,
Wavelength (nm),Abs,Wavelength (nm),Abs,Wavelength (nm),Abs,Wavelength (nm),Abs,
800.0085449,-0.0004163573612,800.0085449,0.004075157922,800.0085449,0.004652361386,800.0085449,-0.001850471133,
799.0036011,0.0002319484338,799.0036011,0.005465564318,799.0036011,0.004432450049,799.0036011,-0.002206599573,
797.9984131,-9.711329767E-005,797.9984131,0.005580185913,797.9984131,0.003262648126,797.9984131,-0.001291444409,
796.9927979,-0.001565347542,796.9927979,0.003786961315,796.9927979,0.002793075982,796.9927979,-0.002583846217,
795.9866333,0.0003451711964,795.9866333,0.006020104047,795.9866333,0.004453476053,795.9866333,-0.002295599086,
795.0148926,-0.0006568512763,795.0148926,0.006347268354,795.0148926,0.003726122901,795.0148926,-0.003358780872,
794.0080566,0.001064647688,794.0080566,0.007482727524,794.0080566,0.005402944051,794.0080566,-0.001076298067,
793.0007935,0.0005854431656,793.0007935,0.005707820877,793.0007935,0.004003097303,793.0007935,-0.002118818462,
791.993103,0.0003130482801,791.993103,0.006631440017,791.993103,0.003478810424,791.993103,-0.001414020429,
790.9850464,0.0008246551733,790.9850464,0.006198280957,790.9850464,0.004260772839,790.9850464,-0.001873926492,
790.0113525,9.765285358E-005,790.0113525,0.005426009651,790.0113525,0.00553579675,790.0113525,-0.001164961373,
789.0025024,0.0006778350798,789.0025024,0.004695012234,789.0025024,0.003972609993,789.0025024,-0.002641894622,
787.9932251,-0.0008671419928,787.9932251,0.005420557689,787.9932251,0.00453654537,787.9932251,-0.002145865699,
786.9835815,3.031352753E-005,786.9835815,0.005415918306,786.9835815,0.004715606105,786.9835815,-0.001853564172,
786.0083618,0.00100943062,786.0083618,0.007604784798,786.0083618,0.006018187851,786.0083618,-0.0002316176397,
784.9979248,0.0005162140005,784.9979248,0.006105573848,784.9979248,0.004985252395,784.9979248,-0.001409221208,
783.9870605,0.002179960953,783.9870605,0.00695030624,783.9870605,0.006204215344,783.9870605,-0.001249167137,
783.0106812,0.0003200425708,783.0106812,0.006519352086,783.0106812,0.006183078047,783.0106812,-0.001466756104,
781.9990845,-0.001489767921,781.9990845,0.006235122681,781.9990845,0.005109124351,781.9990845,-0.0001813192357,
780.9869995,0.0002320261265,780.9869995,0.006321212277,780.9869995,0.005507980473,780.9869995,-0.0008886356372,
780.0095825,7.388483937E-005,780.0095825,0.005834863987,780.0095825,0.004227104597,780.0095825,-0.0008650235832,
778.9967651,0.0001802296174,778.9967651,0.006968140602,778.9967651,0.005842525046,778.9967651,-0.001365458709,
777.9835815,0.0008254072745,777.9835815,0.007773941383,777.9835815,0.006472054869,777.9835815,-0.000744101475,
777.0048828,-0.001510611735,777.0048828,0.005133221857,777.0048828,0.003611284541,777.0048828,-0.002889285563,
775.9909668,-4.566044663E-005,775.9909668,0.007668619044,775.9909668,0.006278900895,775.9909668,-0.0005462127156,
775.0115967,0.000746026868,775.0115967,0.007218132727,775.0115967,0.0063234712,775.0115967,-0.0008989687776,
773.9967651,0.0002589886717,773.9967651,0.005708240904,773.9967651,0.005382579286,773.9967651,-0.002077394398,
773.0167236,0.0006030438235,773.0167236,0.007535850164,773.0167236,0.006597009022,773.0167236,6.497426511E-006,
772.0011597,0.001714546001,772.0011597,0.007978862152,772.0011597,0.00679106731,772.0011597,-8.474239439E-005,
770.9852905,-0.0002510213235,770.9852905,0.005658829119,770.9852905,0.005135945976,770.9852905,-0.0001585485006,
770.0040283,9.318958405E-007,770.0040283,0.007198920008,770.0040283,0.005865876097,770.0040283,-0.00146004837,
768.9873657,-0.0005006048596,768.9873657,0.007712831721,768.9873657,0.006409157999,768.9873657,-0.0005432654289,
768.0054321,0.0005596785923,768.0054321,0.007781505119,768.0054321,0.006911957171,768.0054321,0.0007160003879,
766.9879761,-0.0008404801483,766.9879761,0.006982055958,766.9879761,0.005824028514,766.9879761,0.0002001187531,
766.0053101,0.000209183112,766.0053101,0.007430190686,766.0053101,0.006835322361,766.0053101,-0.0002792198211,
764.9869995,0.001045160112,764.9869995,0.007226529066,764.9869995,0.007245058659,764.9869995,0.001374647254,
764.0036011,8.231815627E-006,764.0036011,0.007946327329,764.0036011,0.007315316238,764.0036011,5.257758312E-005,
762.9846191,-0.0006600046181,762.9846191,0.007073845249,762.9846191,0.005585508887,762.9846191,-0.0005939872353,
762.0004272,-0.0001898579649,762.0004272,0.007380477153,762.0004272,0.006625105627,762.0004272,-0.0005139464047,
761.0158691,-0.0001297210983,761.0158691,0.007392694708,761.0158691,0.007489917334,761.0158691,0.0003911577514,
759.9957886,9.363963909E-005,759.9957886,0.007494473364,759.9957886,0.006188539322,759.9957886,0.0003362853604,
759.010498,0.0006095243734,759.010498,0.008717710152,759.010498,0.007062952965,759.010498,0.001535211341,
757.989624,0.0001199721446,757.989624,0.008690296672,757.989624,0.007924077101,757.989624,0.0008473749622,
757.0036621,-8.665757923E-005,757.0036621,0.008589002304,757.0036621,0.007730355021,757.0036621,0.0007881918573,
756.0172729,-0.0004924859386,756.0172729,0.007951416075,756.0172729,0.006717818789,756.0172729,6.425372703E-005,
754.9952393,0.0003964692005,754.9952393,0.007377844304,754.9952393,0.007306628861,754.9952393,0.0008105466841,
754.0081177,0.0001404799841,754.0081177,0.008318113163,754.0081177,0.006907301955,754.0081177,0.001569243381,
752.9854126,-0.0005777527695,752.9854126,0.008341201581,752.9854126,0.007727192715,752.9854126,0.0005656401045,
751.9976196,-0.0002825828269,751.9976196,0.008623670787,751.9976196,0.006748236716,751.9976196,0.000755335961,
751.0093994,-0.000217077235,751.0093994,0.008305764757,751.0093994,0.007061531767,751.0093994,0.001436091959,
749.9855347,0.0001932040614,749.9855347,0.007925078273,749.9855347,0.006435061805,749.9855347,-0.0005285803345,
748.9967041,7.476511382E-005,748.9967041,0.009320850484,748.9967041,0.007545674685,748.9967041,0.002433224814,
748.0074463,-0.00052940764,748.0074463,0.008389758877,748.0074463,0.006928343326,748.0074463,0.001628922764,
746.9824219,0.0006814906956,746.9824219,0.009519834071,746.9824219,0.008066141978,746.9824219,0.00228625047,
745.9924927,0.0005125079188,745.9924927,0.009224459529,745.9924927,0.008208965883,745.9924927,0.00294728484,
745.0021362,0.0003889813961,745.0021362,0.0091032153,745.0021362,0.007432639599,745.0021362,0.0005613114918,
744.0114746,0.0004543551186,744.0114746,0.0106031457,744.0114746,0.008899745531,744.0114746,0.002104598563,
742.9850464,-0.0002439326199,742.9850464,0.008736488409,742.9850464,0.007989170961,742.9850464,0.001453363569,
741.9935913,-0.0004240121925,741.9935913,0.01008336712,741.9935913,0.007383610588,741.9935913,0.001599666663,
741.0018921,-0.0005820440711,741.0018921,0.009259416722,741.0018921,0.00839746464,741.0018921,0.00150645501,
740.0097656,-0.0001166265138,740.0097656,0.009462208487,740.0097656,0.008303415962,740.0097656,0.001768033369,
739.017334,0.0003455079859,739.017334,0.01024660096,739.017334,0.008129253052,739.017334,0.001636328059,
737.9890747,0.0001917538029,737.9890747,0.01077782642,737.9890747,0.009211899713,737.9890747,0.002581082284,
736.9959106,6.531520921E-005,736.9959106,0.01142627653,736.9959106,0.00916957017,736.9959106,0.002860037144,
736.0024414,0.000976454292,736.0024414,0.01088961214,736.0024414,0.009301702492,736.0024414,0.003383290255,
735.0085449,2.068338108E-005,735.0085449,0.01051943935,735.0085449,0.008665023372,735.0085449,0.002613399643,
734.0143433,-0.0001126928837,734.0143433,0.01103472244,734.0143433,0.009385889396,734.0143433,0.003211505944,
732.9842529,-0.0007077149348,732.9842529,0.01091175061,732.9842529,0.008991201408,732.9842529,0.002398135839,
731.9893799,0.0004034648591,731.9893799,0.01144052204,731.9893799,0.008997253142,731.9893799,0.003223267384,
730.9941406,0.0008960086852,730.9941406,0.0123852687,730.9941406,0.009559313767,730.9941406,0.003430695506,
729.9984741,-0.0001941531227,729.9984741,0.01236095186,729.9984741,0.009591571987,729.9984741,0.003402309259,
729.0025024,-0.0002542810689,729.0025024,0.01197235938,729.0025024,0.009427393787,729.0025024,0.003888577456,
728.0062866,0.0008144886815,728.0062866,0.01227096748,728.0062866,0.009862965904,728.0062866,0.003824356245,
727.0096436,7.437675231E-005,727.0096436,0.01201517601,727.0096436,0.009950652719,727.0096436,0.003816077951,
726.0126343,-0.0008226530044,726.0126343,0.01121717319,726.0126343,0.00979255978,726.0126343,0.00311129936,
725.0152588,0.0002882323461,725.0152588,0.01261521503,725.0152588,0.01016526762,725.0152588,0.003728838405,
724.0177002,-0.0003924092744,724.0177002,0.01255608536,724.0177002,0.01013089996,724.0177002,0.003552454524,
722.9840088,4.160074241E-005,722.9840088,0.01266750321,722.9840088,0.01034250297,722.9840088,0.004363284446,
721.9855957,-0.0004598019295,721.9855957,0.0131133562,721.9855957,0.01021352503,721.9855957,0.003712233156,
720.9869385,-0.0004340460291,720.9869385,0.01250634156,720.9869385,0.00999915041,720.9869385,0.003931336105,
719.987854,-0.0002788059064,719.987854,0.01285581477,719.987854,0.01018188335,719.987854,0.004542535637,
718.9885254,0.0001191953561,718.9885254,0.01361898612,718.9885254,0.01119252387,718.9885254,0.004365193658,
717.9887695,-0.0008740655612,717.9887695,0.01315265615,717.9887695,0.01030920818,717.9887695,0.004556791857,
716.9887085,-6.124188076E-005,716.9887085,0.01352433488,716.9887085,0.01091119274,716.9887085,0.004310836084,
715.9882813,0.0002546372416,715.9882813,0.0137264831,715.9882813,0.01076922938,715.9882813,0.004329608288,
714.9875488,-0.0002081250859,714.9875488,0.01283456478,714.9875488,0.01087297034,714.9875488,0.004536074586,
713.9865112,0.0003042925964,713.9865112,0.01341766212,713.9865112,0.01051288843,713.9865112,0.00442750752,
712.9850464,0.0006043917965,712.9850464,0.01390520483,712.9850464,0.01117042452,712.9850464,0.004925005138,
711.9833374,0.0002183253528,711.9833374,0.01399069,711.9833374,0.01126751397,711.9833374,0.004747977946,
711.0170288,0.0005135964602,711.0170288,0.01379456371,711.0170288,0.01158235967,711.0170288,0.00510881003,
710.0146484,0.0004274582025,710.0146484,0.01428360026,710.0146484,0.01056245714,710.0146484,0.005149750505,
709.0119019,-7.7081575E-005,709.0119019,0.0144675551,709.0119019,0.01213555969,709.0119019,0.005293662194,
708.0087891,0.00057375303,708.0087891,0.01457421854,708.0087891,0.01263453625,708.0087891,0.005204815418,
707.0053711,0.0004510901053,707.0053711,0.01394321397,707.0053711,0.01182451565,707.0053711,0.005386327393,
706.0015869,0.0004311376542,706.0015869,0.0142979119,706.0015869,0.01174014714,706.0015869,0.005416730884,
704.9974976,0.0006282147369,704.9974976,0.0146834515,704.9974976,0.01171581354,704.9974976,0.005260620732,
703.993103,-0.0007374859997,703.993103,0.01476239506,703.993103,0.01138428878,703.993103,0.004406194668,
702.9883423,0.0003307414881,702.9883423,0.01495464426,702.9883423,0.01138444804,702.9883423,0.005208482966,
701.9832764,-0.0006954130949,701.9832764,0.01378804445,701.9832764,0.01069209632,701.9832764,0.004511644132,
701.0137329,-0.0009445347823,701.0137329,0.01419310924,701.0137329,0.0110543184,701.0137329,0.005471698474,
700.0079956,0.0005086463643,700.0079956,0.01537871454,700.0079956,0.01146173105,700.0079956,0.006283181719,
699.0019531,0.0001608075108,699.0019531,0.01481839735,699.0019531,0.01144371089,699.0019531,0.005539231468,
697.9956055,9.410569328E-005,697.9956055,0.01434716582,697.9956055,0.01120123547,697.9956055,0.005361953285,
696.9887695,9.723858238E-005,696.9887695,0.01487657707,696.9887695,0.01195083279,696.9887695,0.005319053773,
696.0177612,-0.000364787149,696.0177612,0.01471938659,696.0177612,0.01168735884,696.0177612,0.005223521031,
695.0103149,0.001311004278,695.0103149,0.01583396457,695.0103149,0.01258201152,695.0103149,0.005918853916,
694.0026855,0.0004047603579,694.0026855,0.01557330322,694.0026855,0.01200346742,694.0026855,0.005864931736,
692.9946289,4.434492803E-005,692.9946289,0.01593819819,692.9946289,0.01199449878,692.9946289,0.005999028217,
691.9862671,5.314714508E-005,691.9862671,0.01419252064,691.9862671,0.01126860268,691.9862671,0.004611337092,
691.0135498,-0.0001426600211,691.0135498,0.01493669394,691.0135498,0.01205544267,691.0135498,0.005422156304,
690.0046387,-0.0008462673868,690.0046387,0.0142185986,690.0046387,0.01072104275,690.0046387,0.005101109389,
688.9952393,-0.0004297015257,688.9952393,0.01525649056,688.9952393,0.01263240352,688.9952393,0.006290535443,
687.9856567,-0.0006044307374,687.9856567,0.01583023369,687.9856567,0.01164103765,687.9856567,0.005590071436,
687.0116577,-0.0008397051133,687.0116577,0.01462146919,687.0116577,0.00993166212,687.0116577,0.004457791336,
686.0014038,-0.0006988762179,686.0014038,0.01633339375,686.0014038,0.01264660899,686.0014038,0.005877578631,
684.9907837,-0.0002335321769,684.9907837,0.01489294507,684.9907837,0.01177756861,684.9907837,0.005681882147,
684.0159302,0.0009878439596,684.0159302,0.01622568071,684.0159302,0.0121724559,684.0159302,0.006667109206,
683.0046997,0.001276291558,683.0046997,0.01679120772,683.0046997,0.01382866222,683.0046997,0.007686561905,
681.993103,0.0001912099688,681.993103,0.01689055748,681.993103,0.01246819086,681.993103,0.007139627822,
681.017395,-0.001075833337,681.017395,0.01550572086,681.017395,0.01069957763,681.017395,0.00602700701,
680.005127,-0.0005258397432,680.005127,0.01621396467,680.005127,0.01236587949,680.005127,0.006349475123,
678.9926758,0.000253186794,678.9926758,0.01564231887,678.9926758,0.01278758794,678.9926758,0.006618955173,
678.0159302,1.837907689E-006,678.0159302,0.01617035642,678.0159302,0.01317357551,678.0159302,0.006675888784,
677.0028076,-0.0008731872076,677.0028076,0.01650168374,677.0028076,0.01296965685,677.0028076,0.006781259552,
675.9893188,-0.0002932925127,675.9893188,0.01689618267,675.9893188,0.01240745652,675.9893188,0.0060209441,
675.0117188,-0.0006877113483,675.0117188,0.01560936589,675.0117188,0.01236129832,675.0117188,0.006602002308,
673.9976196,-0.0001874774898,673.9976196,0.01707047783,673.9976196,0.01260748692,673.9976196,0.005978477653,
672.9832153,0.0008750760462,672.9832153,0.01735655591,672.9832153,0.01340116281,672.9832153,0.006862987299,
672.0046997,-0.0008048251038,672.0046997,0.01596233994,672.0046997,0.01295664161,672.0046997,0.006957960781,
670.989624,-0.0001971027959,670.989624,0.01585117355,670.989624,0.0136989383,670.989624,0.007180339191,
670.0105591,-0.0001642930438,670.0105591,0.01708525978,670.0105591,0.01332889963,670.0105591,0.006878161337,
668.994873,0.0002498973627,668.994873,0.01740095764,668.994873,0.01423526276,668.994873,0.008213133551,
668.0151367,0.0006305219722,668.0151367,0.01835955866,668.0151367,0.01441970654,668.0151367,0.008128118701,
666.9988403,0.0008697328158,666.9988403,0.01982278749,666.9988403,0.01508361753,666.9988403,0.00801849179,
665.9822998,-0.001215765602,665.9822998,0.01831600256,665.9822998,0.01307099033,665.9822998,0.00742726773,
665.0016479,0.001239738311,665.0016479,0.01831324957,665.0016479,0.01463244576,665.0016479,0.008159585297,
663.984436,-0.0001336028217,663.984436,0.01764549129,663.984436,0.01425580587,663.984436,0.008313600905,
663.0032349,5.332836736E-005,663.0032349,0.01773996651,663.0032349,0.01551822294,663.0032349,0.008488524705,
661.9853516,0.000528135919,661.9853516,0.01880642958,661.9853516,0.0157246571,661.9853516,0.008899929933,
661.0036011,-0.000583853689,661.0036011,0.01834000833,661.0036011,0.01488005929,661.0036011,0.008445604704,
659.9850464,-2.448743544E-005,659.9850464,0.01907848008,659.9850464,0.01520488132,659.9850464,0.008639276959,
659.0027466,-0.000127650841,659.0027466,0.01877410151,659.0027466,0.0152433794,659.0027466,0.007917670533,
657.9836426,-0.0007959367358,657.9836426,0.0183545351,657.9836426,0.01632022485,657.9836426,0.008298587054,
657.0007324,0.0001173828423,657.0007324,0.01990348287,657.0007324,0.01650039293,657.0007324,0.009571460076,
656.0174561,6.024082541E-005,656.0174561,0.01982181147,656.0174561,0.01733061112,656.0174561,0.009810114279,
654.9974365,0.001206900226,654.9974365,0.02014750615,654.9974365,0.01740825921,654.9974365,0.01046947669,
654.0136108,0.0002341758227,654.0136108,0.01931846514,654.0136108,0.01650071517,654.0136108,0.009604618885,
652.993042,-0.0002224587952,652.993042,0.01944985054,652.993042,0.01669906266,652.993042,0.00904601533,
652.0085449,-0.0002544362796,652.0085449,0.01960694976,652.0085449,0.01705496944,652.0085449,0.009872579016,
650.9873657,-0.000201346149,650.9873657,0.01954623684,650.9873657,0.01815686189,650.9873657,0.01044333167,
650.0023804,0.0002663965279,650.0023804,0.01983042806,650.0023804,0.01703526266,650.0023804,0.009554101154,
649.0170898,-0.0003153319121,649.0170898,0.01960667782,649.0170898,0.01730620489,649.0170898,0.009799470194,
647.9949951,0.0002169527143,647.9949951,0.02018625475,647.9949951,0.01733775064,647.9949951,0.01088894904,
647.0090942,-0.000166363141,647.0090942,0.01943794079,647.0090942,0.01723135076,647.0090942,0.009608324617,
645.9864502,0.0009275780758,645.9864502,0.02039776929,645.9864502,0.01809578389,645.9864502,0.01054158434,
644.9998779,-5.953731943E-006,644.9998779,0.01959996298,644.9998779,0.01681970246,644.9998779,0.009951234795,
644.0131836,4.517336492E-005,644.0131836,0.02015154622,644.0131836,0.01777596772,644.0131836,0.01014653314,
642.989624,0.0001498538331,642.989624,0.02047347091,642.989624,0.01817929186,642.989624,0.01087347418,
642.0022583,-0.001276991097,642.0022583,0.01906114072,642.0022583,0.0163917765,642.0022583,0.009639686905,
641.0147095,-6.295011553E-005,641.0147095,0.02107955702,641.0147095,0.01795817167,641.0147095,0.01099096611,
639.9902344,0.0008387900307,639.9902344,0.02151950076,639.9902344,0.01904110052,639.9902344,0.01106483303,
639.0020142,-6.201834913E-005,639.0020142,0.02122971602,639.0020142,0.01850064844,639.0020142,0.01149697509,
638.0136108,4.550991798E-005,638.0136108,0.0208682809,638.0136108,0.018010756,638.0136108,0.01139420085,
636.9881592,-0.0006884866743,636.9881592,0.02122909203,636.9881592,0.0180187691,636.9881592,0.01092324406,
635.9991455,1.558363329E-005,635.9991455,0.02141367458,635.9991455,0.01788104512,635.9991455,0.01079929527,
635.0098877,0.0001393147395,635.0098877,0.02153514139,635.0098877,0.01799273118,635.0098877,0.01051649544,
633.9835815,-0.0005689631216,633.9835815,0.02186029777,633.9835815,0.01895337179,633.9835815,0.01125178672,
632.9937744,-0.000397323136,632.9937744,0.02239001356,632.9937744,0.01854538359,632.9937744,0.01098982524,
632.0036011,0.0006891131634,632.0036011,0.02172717452,632.0036011,0.01890113205,632.0036011,0.01138381008,
631.0131226,-4.467688268E-005,631.0131226,0.02239287458,631.0131226,0.01840465702,631.0131226,0.01090638805,
629.9857788,0.0004880952474,629.9857788,0.02335710637,629.9857788,0.01889599487,629.9857788,0.01204197574,
628.994751,0.0002749442356,628.994751,0.02330190502,628.994751,0.01981306076,628.994751,0.01199606899,
628.003418,0.0001504753163,628.003418,0.02278635278,628.003418,0.01883465238,628.003418,0.01175541338,
627.0119019,-0.0005004497361,627.0119019,0.02313246205,627.0119019,0.01881929673,627.0119019,0.01143895369,
625.9833984,-8.375891775E-005,625.9833984,0.02227430232,625.9833984,0.0185574051,625.9833984,0.01121884678,
624.9912109,-0.0001759889274,624.9912109,0.02317841351,624.9912109,0.02029134892,624.9912109,0.01178299449,
623.9988403,-5.259710088E-005,623.9988403,0.02254032716,623.9988403,0.01888826117,623.9988403,0.01163662411,
623.0061646,0.0001645623852,623.0061646,0.02308662422,623.0061646,0.02016735449,623.0061646,0.01201653387,
622.0132446,0.0008377266931,622.0132446,0.02323269844,622.0132446,0.02081746794,622.0132446,0.01329694968,
620.9832153,0.0003491608368,620.9832153,0.02356869541,620.9832153,0.0198222734,620.9832153,0.01242314558,
619.9897461,0.0002849685552,619.9897461,0.02262878232,619.9897461,0.0195505973,619.9897461,0.01228444185,
618.9959717,-0.0008162970771,618.9959717,0.02268864587,618.9959717,0.01880651154,618.9959717,0.01238436345,
618.0018921,-0.0005270290421,618.0018921,0.02272636816,618.0018921,0.02014677413,618.0018921,0.01314473245,
617.0076294,-0.0001213882279,617.0076294,0.02327631228,617.0076294,0.01974749751,617.0076294,0.01334419474,
616.0130615,6.679093349E-005,616.0130615,0.02385722846,616.0130615,0.02063750848,616.0130615,0.01367321238,
615.0182495,0.000437796989,615.0182495,0.02383778431,615.0182495,0.0215973556,615.0182495,0.01403886639,
613.9862061,-0.0004372009425,613.9862061,0.02421464585,613.9862061,0.02045463957,613.9862061,0.01456115488,
612.9907837,-0.0005809583236,612.9907837,0.0236575529,612.9907837,0.02138000913,612.9907837,0.01399745326,
611.9951782,7.429908146E-005,611.9951782,0.02526337095,611.9951782,0.02260508575,611.9951782,0.01513644494,
610.9992065,0.0004763817997,610.9992065,0.02532329597,610.9992065,0.02256901003,610.9992065,0.01590511575,
610.0030518,-2.536750799E-005,610.0030518,0.02544918284,610.0030518,0.02242397517,610.0030518,0.01593046449,
609.0065308,-0.0001189556206,609.0065308,0.02583228238,609.0065308,0.0232207384,609.0065308,0.01597318985,
608.0097656,0.0001120230299,608.0097656,0.02718633413,608.0097656,0.024597615,608.0097656,0.01710426807,
607.0128174,-0.001430791221,607.0128174,0.02638471872,607.0128174,0.0243730396,607.0128174,0.01652034372,
606.0154419,-0.000159687057,606.0154419,0.02799539827,606.0154419,0.02522309683,606.0154419,0.01855151542,
605.0179443,-8.443182014E-005,605.0179443,0.02875430137,605.0179443,0.02624585666,605.0179443,0.01891343296,
603.9832153,0.0002689349058,603.9832153,0.02926126309,603.9832153,0.02733341046,603.9832153,0.01948109269,
602.9850464,-0.000636173354,602.9850464,0.02945821173,602.9850464,0.02842518687,602.9850464,0.01948385499,
601.9867554,0.0005296131712,601.9867554,0.03079659678,601.9867554,0.02906985395,601.9867554,0.02167133614,
600.9880981,3.269521039E-005,600.9880981,0.03189701587,600.9880981,0.03042056225,600.9880981,0.02231531218,
599.9892578,-0.0001484565437,599.9892578,0.0325111188,599.9892578,0.03119637445,599.9892578,0.02264705487,
598.9900513,-5.45641924E-005,598.9900513,0.03255969286,598.9900513,0.03135048971,598.9900513,0.02390569076,
597.9907227,-0.0008615101106,597.9907227,0.03353079408,597.9907227,0.03308732063,597.9907227,0.02520372905,
596.9910278,0.0003665964468,596.9910278,0.03515275195,596.9910278,0.03474513814,596.9910278,0.0264075771,
595.9910889,-3.799893966E-005,595.9910889,0.03626675531,595.9910889,0.03583051264,595.9910889,0.02777419053,
594.9909058,-0.0008732905262,594.9909058,0.03715287149,594.9909058,0.03792971373,594.9909058,0.02917568013,
593.9904175,0.0004439122858,593.9904175,0.03952766955,593.9904175,0.03990900889,593.9904175,0.0312110614,
592.9896851,-0.0007725263713,592.9896851,0.04002613574,592.9896851,0.04122940078,592.9896851,0.0325232558,
591.9887085,-0.0003292999463,591.9887085,0.04229896516,591.9887085,0.04368095472,591.9887085,0.03456206247,
590.9874878,0.0009018451092,590.9874878,0.04513527453,590.9874878,0.04685244709,590.9874878,0.03771417588,
589.9860229,0.001494869939,589.9860229,0.04749435186,589.9860229,0.04923313111,589.9860229,0.04007740319,
588.9842529,0.0002181181626,588.9842529,0.0491986908,588.9842529,0.05066311359,588.9842529,0.04162192345,
587.9821777,0.0003992933489,587.9821777,0.05167900771,587.9821777,0.05336182937,587.9821777,0.04454695061,
587.0170898,-0.0001319983712,587.0170898,0.05400460958,587.0170898,0.05606740341,587.0170898,0.04652221501,
586.0145264,0.0004007702228,586.0145264,0.05775309354,586.0145264,0.05952369049,586.0145264,0.05029895529,
585.0117798,-0.0008164003957,585.0117798,0.06075861678,585.0117798,0.06156848371,585.0117798,0.05264941975,
584.008667,0.0001764746121,584.008667,0.06468714029,584.008667,0.06556162238,584.008667,0.05600782111,
583.0054321,-0.0004415971343,583.0054321,0.06740576774,583.0054321,0.06877502799,583.0054321,0.05835740268,
582.0018921,-9.235131438E-005,582.0018921,0.07174147666,582.0018921,0.07251661271,582.0018921,0.06287305802,
580.9979858,0.0001498797355,580.9979858,0.07621965557,580.9979858,0.07517946512,580.9979858,0.06648798287,
579.9940186,-0.0006842481089,579.9940186,0.0799568519,579.9940186,0.07915575057,579.9940186,0.07051784545,
578.9896851,0.0001490252034,578.9896851,0.08395986259,578.9896851,0.0822615698,578.9896851,0.07469214499,
577.9851685,-0.0003896678099,577.9851685,0.08839119226,577.9851685,0.08519402146,577.9851685,0.07747879624,
577.0174561,0.0009204702219,577.0174561,0.09296121448,577.0174561,0.08939196914,577.0174561,0.08204647899,
576.0124512,0.0001520290098,576.0124512,0.09624905884,576.0124512,0.09186800569,576.0124512,0.08582711965,
575.0070801,0.0001017178802,575.0070801,0.09967887402,575.0070801,0.09444989264,575.0070801,0.08842933178,
574.0015259,-0.0003796846722,574.0015259,0.102315329,574.0015259,0.09697683156,574.0015259,0.09131187201,
572.9956665,0.0001012259308,572.9956665,0.1052839234,572.9956665,0.09870476276,572.9956665,0.09388510883,
571.989563,-4.04837665E-005,571.989563,0.1072859839,571.989563,0.09999459982,571.989563,0.09585271776,
570.9832764,-0.0009767691372,570.9832764,0.1085490882,570.9832764,0.1016375721,570.9832764,0.09773493558,
570.0139771,-0.0002991387446,570.0139771,0.108910352,570.0139771,0.1016395688,570.0139771,0.09935204685,
569.0071411,-0.00124173332,569.0071411,0.1084672734,569.0071411,0.1014095023,569.0071411,0.09877663851,
568.000061,0.0005723015056,568.000061,0.1095467284,568.000061,0.1024795324,568.000061,0.1010493562,
566.9927368,-0.0001209224065,566.9927368,0.1095285416,566.9927368,0.1029226184,566.9927368,0.1009690389,
565.9851685,-2.448743544E-005,565.9851685,0.1085755453,565.9851685,0.1019457951,565.9851685,0.1001880541,
565.0146484,-0.0001440056512,565.0146484,0.108445242,565.0146484,0.1016915515,565.0146484,0.09913506359,
564.0065918,0.000305950467,564.0065918,0.1058395207,564.0065918,0.1009296775,564.0065918,0.09904927015,
562.998291,-0.0002048132446,562.998291,0.1046787277,562.998291,0.09967564791,562.998291,0.09725011885,
561.9897461,4.3128166E-005,561.9897461,0.1035193875,561.9897461,0.09926956892,561.9897461,0.09662529081,
561.0182495,-0.0001694164966,561.0182495,0.1020337567,561.0182495,0.09917034954,561.0182495,0.09545690566,
560.0092773,-0.0005278046592,560.0092773,0.1003676653,560.0092773,0.09816612303,560.0092773,0.09456634521,
558.999939,3.748450035E-005,558.999939,0.09912163019,558.999939,0.09751477093,558.999939,0.09327848256,
557.9904175,0.0001103141185,557.9904175,0.0978077203,557.9904175,0.09689894319,557.9904175,0.09263399243,
557.0180054,1.320186357E-006,557.0180054,0.09683209658,557.0180054,0.09598618001,557.0180054,0.09105633944,
556.0079956,-0.0003338006791,556.0079956,0.09652851522,556.0079956,0.09636208415,556.0079956,0.09120963514,
554.9977417,-0.0003462679451,554.9977417,0.09491603076,554.9977417,0.09585617483,554.9977417,0.08967646956,
553.9872437,0.0001480412029,553.9872437,0.09560178965,553.9872437,0.09696372598,553.9872437,0.09039147943,
553.013916,-0.0002400518861,553.013916,0.09540507942,553.013916,0.09731815755,553.013916,0.08965031058,
552.0029907,0.000602369837,552.0029907,0.09569806606,552.0029907,0.09788876027,552.0029907,0.08951789141,
550.9916992,-0.0003797364188,550.9916992,0.09577835351,550.9916992,0.09823784977,550.9916992,0.08925139159,
550.0177002,-0.0008817123598,550.0177002,0.09661325812,550.0177002,0.09841299057,550.0177002,0.09035938233,
549.0059814,-0.0001301869052,549.0059814,0.09839821607,549.0059814,0.09922780097,549.0059814,0.0906079039,
547.9940796,-1.579015407E-005,547.9940796,0.09902814031,547.9940796,0.09996041656,547.9940796,0.09167271852,
546.9818726,-0.0005915572401,546.9818726,0.09936288744,546.9818726,0.1016891301,546.9818726,0.09218639135,
546.006958,-0.0001519240614,546.006958,0.1018489078,546.006958,0.102989614,546.006958,0.09336474538,
544.9943237,4.750334847E-005,544.9943237,0.1029658914,544.9943237,0.1033436209,544.9943237,0.094179295,
543.9814453,-0.000721670338,543.9814453,0.1040065214,543.9814453,0.1038181633,543.9814453,0.09532280266,
543.0057983,0.0003619071504,543.0057983,0.1062627435,543.0057983,0.1053082049,543.0057983,0.0971614942,
541.9924316,-0.0005562437,541.9924316,0.1071834266,541.9924316,0.1062740162,541.9924316,0.09755783528,
541.0164185,0.000171554304,541.0164185,0.1079210117,541.0164185,0.1063536704,541.0164185,0.09742884338,
540.0025635,-0.0003940644674,540.0025635,0.1091789752,540.0025635,0.1061794981,540.0025635,0.09849078953,
538.9884644,-0.0001576169452,538.9884644,0.1098325774,538.9884644,0.1065259576,538.9884644,0.09860729426,
538.0116577,-0.0001222681021,538.0116577,0.1101170182,538.0116577,0.1067471653,538.0116577,0.0997228995,
536.9971924,-0.0003282653051,536.9971924,0.1101722568,536.9971924,0.1066057235,536.9971924,0.09950251132,
535.9824219,9.190491255E-005,535.9824219,0.1105534062,535.9824219,0.1064193845,535.9824219,0.09926322103,
535.0050049,-8.789985441E-005,535.0050049,0.110242486,535.0050049,0.1058751941,535.0050049,0.09969281405,
533.9897461,0.0006314033526,533.9897461,0.1106992438,533.9897461,0.1059340313,533.9897461,0.09998971224,
533.0119019,-0.000365356158,533.0119019,0.1081942692,533.0119019,0.1048242599,533.0119019,0.09805615991,
531.9962158,0.0004647204769,531.9962158,0.1090283245,531.9962158,0.1041162238,531.9962158,0.09838139266,
531.0179443,9.138708265E-005,531.0179443,0.1074452549,531.0179443,0.102675736,531.0179443,0.09764585644,
530.00177,-0.0001301869052,530.00177,0.1059199944,530.00177,0.1011630893,530.00177,0.09662312269,
528.9854126,0.0005894868518,528.9854126,0.1064719707,528.9854126,0.100662291,528.9854126,0.09473318607,
528.0064697,-8.256838919E-005,528.0064697,0.1041870266,528.0064697,0.09918622673,528.0064697,0.09284124523,
526.989563,-0.0002805132826,526.989563,0.1025437117,526.989563,0.09813494235,526.989563,0.09222272038,
526.0101929,-0.0002813928295,526.0101929,0.1007086709,526.0101929,0.09676645696,526.0101929,0.09051188827,
524.9929199,1.330559189E-005,524.9929199,0.1000454426,524.9929199,0.09588912874,524.9929199,0.08936048299,
524.0130615,-0.0003384565352,524.0130615,0.09809435159,524.0130615,0.09361804277,524.0130615,0.0870783031,
522.9953003,-9.214426973E-005,522.9953003,0.09584842622,522.9953003,0.09221286327,522.9953003,0.08535074443,
522.0150146,0.0002759285271,522.0150146,0.09452013671,522.0150146,0.0914984569,522.0150146,0.08389272541,
520.9968262,-0.0004717484408,520.9968262,0.09300299734,520.9968262,0.08949326724,520.9968262,0.08186193556,
520.0161133,-0.0003675804764,520.0161133,0.0917006284,520.0161133,0.08824060112,520.0161133,0.08066993207,
518.9974976,-0.0001002189019,518.9974976,0.08998098969,518.9974976,0.08697155118,518.9974976,0.07899286598,
518.0163574,-0.0003498890728,518.0163574,0.08874464035,518.0163574,0.08542400599,518.0163574,0.07737963647,
516.9972534,0.0007266053581,516.9972534,0.08817669749,516.9972534,0.08490252495,516.9972534,0.07640456408,
516.015686,-0.0004769199877,516.015686,0.08482485265,516.015686,0.08278956264,516.015686,0.07430307567,
514.9960327,5.071357373E-005,514.9960327,0.08327397704,514.9960327,0.08202581108,514.9960327,0.07316475362,
514.0140991,-0.0005369570572,514.0140991,0.08347524703,514.0140991,0.08058615029,514.0140991,0.0716593191,
512.9941406,8.688199887E-005,512.9941406,0.08194327354,512.9941406,0.0802295655,512.9941406,0.07078783214,
512.0117188,-0.0003565622319,512.0117188,0.08131989837,512.0117188,0.07971406728,512.0117188,0.06868247688,
510.9913025,0.0002063083957,510.9913025,0.08069461584,510.9913025,0.07853360474,510.9913025,0.0682271421,
510.0083923,0.0001942658564,510.0083923,0.07940450311,510.0083923,0.07801419497,510.0083923,0.0675579533,
508.9875793,3.971089245E-005,508.9875793,0.07869517058,508.9875793,0.07699674368,508.9875793,0.06586207449,
508.0043335,0.0003151724522,508.0043335,0.07859250903,508.0043335,0.07701028138,508.0043335,0.06610164046,
506.9829712,0.0001842436322,506.9829712,0.07699012756,506.9829712,0.07614213228,506.9829712,0.06476910412,
505.9992981,0.000619945291,505.9992981,0.07754464447,505.9992981,0.07640659809,505.9992981,0.0653905496,
505.0153198,0.0002874811471,505.0153198,0.07637891173,505.0153198,0.07550790161,505.0153198,0.06379623711,
503.9934387,-0.0004451140121,503.9934387,0.07577916235,503.9934387,0.07567422837,503.9934387,0.06337285787,
503.0091248,-0.001047686441,503.0091248,0.0750111416,503.0091248,0.07473697513,503.0091248,0.0624551177,
501.9866943,4.025454473E-005,501.9866943,0.07508277148,501.9866943,0.075199835,501.9866943,0.06277188659,
501.0019531,0.00034226969,501.0019531,0.07509307563,501.0019531,0.07512862235,501.0019531,0.06247215718,
500.0170593,0.0005916383234,500.0170593,0.07547173649,500.0170593,0.07483946532,500.0170593,0.06277738512,
498.993988,0.0002673289855,498.993988,0.07497148216,498.993988,0.07514126599,498.993988,0.06288640201,
498.008606,-0.0001692612423,498.008606,0.07377517223,498.008606,0.07450624555,498.008606,0.06226921454,
496.9851074,0.000186885125,496.9851074,0.07506455481,496.9851074,0.07531675696,496.9851074,0.06284628063,
495.9993591,0.0006080208695,495.9993591,0.07528685778,495.9993591,0.07557212561,495.9993591,0.06244528666,
495.0133972,-0.0004600605171,495.0133972,0.07492204756,495.0133972,0.07536574453,495.0133972,0.06260124594,
493.9892883,0.0006444690516,493.9892883,0.07558509707,493.9892883,0.07588337362,493.9892883,0.06336824596,
493.0028992,5.042879275E-005,493.0028992,0.07496090233,493.0028992,0.07597198337,493.0028992,0.06336905807,
492.0163269,0.000120101613,492.0163269,0.07487597317,492.0163269,0.07641366869,492.0163269,0.06358749419,
490.9915771,0.0001104435796,490.9915771,0.07666184008,490.9915771,0.07495938987,490.9915771,0.06298556179,
490.0046082,-0.0005896959919,490.0046082,0.07598567754,490.0046082,0.07525761425,490.0046082,0.0638550967,
489.0173645,0.0002013359481,489.0173645,0.07632993907,489.0173645,0.07778181881,489.0173645,0.06514275074,
487.9919739,0.0001990051387,487.9919739,0.07677093148,487.9919739,0.07831887156,487.9919739,0.06496942788,
487.0043945,3.116782318E-005,487.0043945,0.07684223354,487.0043945,0.07873352617,487.0043945,0.06493834406,
486.0166016,0.0001032455111,486.0166016,0.07825928926,486.0166016,0.07908832282,486.0166016,0.06606727839,
484.9906311,0.0002020092943,484.9906311,0.07835517079,484.9906311,0.08022549003,484.9906311,0.06712017208,
484.0023804,-0.0001065853357,484.0023804,0.07889059931,484.0023804,0.08016113192,484.0023804,0.0661489889,
483.0140076,0.000198228212,483.0140076,0.07972622663,483.0140076,0.08123029023,483.0140076,0.06627736986,
481.9874268,-0.0003314727219,481.9874268,0.08014655858,481.9874268,0.08224163949,481.9874268,0.06735604256,
480.9985657,-0.0001889264677,480.9985657,0.08109954,480.9985657,0.08344271779,480.9985657,0.0691377148,
480.009613,-0.0002258739842,480.009613,0.08166120201,480.009613,0.0842693001,480.009613,0.06989365071,
478.9822998,-1.465121113E-005,478.9822998,0.08250643313,478.9822998,0.08594219387,478.9822998,0.07052527368,
477.9929199,-0.0001019269839,477.9929199,0.083950378,477.9929199,0.08699767292,477.9929199,0.07165153325,
477.0033264,0.0003858204873,477.0033264,0.08543620259,477.0033264,0.08878103644,477.0033264,0.07333459705,
476.0135498,-0.0001228374313,476.0135498,0.08626706898,476.0135498,0.09023605287,476.0135498,0.074411273,
474.9854736,-0.0005436790525,474.9854736,0.0872958675,474.9854736,0.09192439169,474.9854736,0.07557409257,
473.9953308,-5.477125524E-005,473.9953308,0.08890325576,473.9953308,0.09440060705,473.9953308,0.0777137056,
473.0049133,0.000252098951,473.0049133,0.09067555517,473.0049133,0.09639266133,473.0049133,0.07971838862,
472.0143738,-0.0002305310045,472.0143738,0.09185364097,472.0143738,0.09878515452,472.0143738,0.08061058819,
470.9855347,0.0005192462704,470.9855347,0.0943826884,470.9855347,0.1015732363,470.9855347,0.08373998106,
469.9945374,0.0001796857832,469.9945374,0.096439071,469.9945374,0.1036544368,469.9945374,0.0856873095,
469.003418,-0.0004168745945,469.003418,0.09852856398,469.003418,0.1061808839,469.003418,0.08775235713,
468.012085,-4.405568325E-005,468.012085,0.1011189446,468.012085,0.1094435006,468.012085,0.09088474512,
466.9823608,-0.0002934477234,466.9823608,0.1033985987,466.9823608,0.1131221429,466.9823608,0.09348382801,
465.9906006,0.0004324591428,465.9906006,0.1063850522,465.9906006,0.1167847142,465.9906006,0.09658063203,
464.9987183,-7.77027235E-005,464.9987183,0.1100202948,464.9987183,0.1203638092,464.9987183,0.09973654896,
464.0065613,0.000184528486,464.0065613,0.1130981594,464.0065613,0.1243804768,464.0065613,0.1034484282,
463.0142822,0.0003226331028,463.0142822,0.116937004,463.0142822,0.1285122633,463.0142822,0.1069485247,
461.9836731,-0.0001169370589,461.9836731,0.1210251078,461.9836731,0.1333836168,461.9836731,0.1113067418,
460.9909668,-0.000341870822,460.9909668,0.1254850626,460.9909668,0.1386079639,460.9909668,0.116306223,
459.9980774,-0.0003904954356,459.9980774,0.130029887,459.9980774,0.1432860941,459.9980774,0.12033768,
459.0050354,-0.0003664424585,459.0050354,0.1341594607,459.0050354,0.1482418776,459.0050354,0.124508068,
458.0117798,-0.0002821689122,458.0117798,0.1393804997,458.0117798,0.1541782469,458.0117798,0.1293993145,
457.0183105,-5.694909078E-007,457.0183105,0.1453083605,457.0183105,0.1600503922,457.0183105,0.1362229437,
455.9865112,7.297867705E-005,455.9865112,0.1515984237,455.9865112,0.1674408317,455.9865112,0.141669184,
454.9926758,0.0005919752875,454.9926758,0.1587666869,454.9926758,0.1751704961,454.9926758,0.1486401409,
453.9986877,-6.678066711E-005,453.9986877,0.1643533409,453.9986877,0.1823171526,453.9986877,0.1562309116,
453.0045166,-2.055297227E-005,453.0045166,0.1712200046,453.0045166,0.1909490377,453.0045166,0.1634137183,
452.0101013,4.411193004E-005,452.0101013,0.1778182536,452.0101013,0.1992632449,452.0101013,0.1709640622,
451.0155945,-6.34159951E-005,451.0155945,0.1864741147,451.0155945,0.2093222439,451.0155945,0.1794770211,
449.9825745,0.0001735742117,449.9825745,0.1955875903,449.9825745,0.2195204943,449.9825745,0.1890394539,
448.9876404,-5.17716262E-006,448.9876404,0.2043689787,448.9876404,0.2309060097,448.9876404,0.1997702122,
447.9924927,7.820855535E-005,447.9924927,0.2141632587,447.9924927,0.243405208,447.9924927,0.2105209529,
446.9972534,0.0004605224822,446.9972534,0.2246581018,446.9972534,0.2569868267,446.9972534,0.2210076004,
446.00177,0.0004121188831,446.00177,0.2358691543,446.00177,0.2713453472,446.00177,0.2336695641,
445.0061035,-0.0003403188894,445.0061035,0.2483228743,445.0061035,0.286162287,445.0061035,0.2481324226,
444.0102234,-0.0004168745945,444.0102234,0.2616798282,444.0102234,0.3048436046,444.0102234,0.2610074282,
443.0142212,6.479741569E-005,443.0142212,0.2759864032,443.0142212,0.3238176107,443.0142212,0.2812151015,
442.0180664,0.0001245293533,442.0180664,0.2917948067,442.0180664,0.3439916968,442.0180664,0.296397835,
440.9833374,0.0002275713923,440.9833374,0.3123769164,440.9833374,0.368897289,440.9833374,0.3196074963,
439.9867554,-0.0001432810823,439.9867554,0.333319068,439.9867554,0.3925172389,439.9867554,0.3403475583,
438.9900208,0.001127865282,438.9900208,0.3546858728,438.9900208,0.4194232523,438.9900208,0.365519166,
437.9930725,0.0005913791247,437.9930725,0.3820922375,437.9930725,0.4449567199,437.9930725,0.390119493,
436.9959106,6.715339259E-005,436.9959106,0.405654639,436.9959106,0.4741654098,436.9959106,0.4198049903,
435.9986267,5.953776849E-007,435.9986267,0.4368971288,435.9986267,0.5070227981,435.9986267,0.4495449662,
435.0012207,-0.0002316693863,435.0012207,0.4669853449,435.0012207,0.5390917659,435.0012207,0.480506897,
434.0035706,-0.0002887913724,434.0035706,0.5004010797,434.0035706,0.5735248923,434.0035706,0.5180923343,
433.0057068,0.0005860393867,433.0057068,0.5439627767,433.0057068,0.6138103008,433.0057068,0.5549188852,
432.007782,-6.103482519E-005,432.007782,0.5849940777,432.007782,0.6471025944,432.007782,0.5907873511,
431.0095825,-0.0002094704978,431.0095825,0.6236177683,431.0095825,0.6877344251,431.0095825,0.629840374,
430.0112305,0.0002425156854,430.0112305,0.6673414707,430.0112305,0.7268202305,430.0112305,0.6749823093,
429.0127258,-0.0001701927686,429.0127258,0.7157163024,429.0127258,0.7607177496,429.0127258,0.7097963691,
428.0140381,-0.0001099496731,428.0140381,0.768217504,428.0140381,0.8000013828,428.0140381,0.7566503882,
427.0151672,9.262987442E-005,427.0151672,0.8138179779,427.0151672,0.8361192346,427.0151672,0.7964738607,
426.0160522,-0.000739139854,426.0160522,0.8609626889,426.0160522,0.8668237329,426.0160522,0.8402273059,
425.0168762,-0.0004524580436,425.0168762,0.9027383924,425.0168762,0.8913452625,425.0168762,0.8748154044,
424.0175171,-4.089963568E-006,424.0175171,0.9344269633,424.0175171,0.9172406197,424.0175171,0.9146538377,
423.0179749,-0.00056653301,423.0179749,0.9673448205,423.0179749,0.9372580647,423.0179749,0.9411444068,
422.0181885,-0.0001740741282,422.0181885,0.9970929027,422.0181885,0.9501864314,422.0181885,0.9697582722,
421.0182495,0.0002995780669,421.0182495,1.013939738,421.0182495,0.9597827196,421.0182495,0.9885387421,
420.018219,-0.0005676188157,420.018219,1.029571414,420.018219,0.9628373384,420.018219,0.9997534752,
419.0179138,0.0006437691045,419.0179138,1.034937501,419.0179138,0.9601464868,419.0179138,1.007027149,
418.0174866,0.0001194024953,418.0174866,1.033502698,418.0174866,0.9514151216,418.0174866,1.005243301,
417.0169373,-0.000508206489,417.0169373,1.023139596,417.0169373,0.9345039725,417.0169373,0.9944645762,
416.0161743,-2.107066757E-005,416.0161743,1.00926125,416.0161743,0.9153746367,416.0161743,0.9807077646,
415.0151978,0.0002999407297,415.0151978,0.9854108095,415.0151978,0.8954129815,415.0151978,0.9605915546,
414.0140991,-0.0001155395948,414.0140991,0.9580845237,414.0140991,0.8660097718,414.0140991,0.9359588027,
413.0128479,0.0005268659443,413.0128479,0.9268311858,413.0128479,0.8395289779,413.0128479,0.9068502188,
412.0114136,0.0005178467836,412.0114136,0.8959952593,412.0114136,0.8062589765,412.0114136,0.8729647994,
411.0097961,-0.0001650175836,411.0097961,0.8536501527,411.0097961,0.7739838958,411.0097961,0.83428967,
410.0080261,7.269388152E-005,410.0080261,0.8206238747,410.0080261,0.7471867204,410.0080261,0.8044819236,
409.006073,0.000329679373,409.006073,0.7877517939,409.006073,0.7180460095,409.006073,0.7700804472,
408.0039063,0.0007649565232,408.0039063,0.7510563135,408.0039063,0.6890363097,408.0039063,0.734372735,
407.0016785,-0.000256557687,407.0016785,0.7143709064,407.0016785,0.6568617821,407.0016785,0.7035149932,
405.9992676,0.0005755933817,405.9992676,0.6820968986,405.9992676,0.6319701076,405.9992676,0.6704210639,
404.9966431,-7.785801427E-005,404.9966431,0.6560667157,404.9966431,0.6069779396,404.9966431,0.6405471563,
403.9938354,-0.0006666213158,403.9938354,0.6267302036,403.9938354,0.5891532898,403.9938354,0.607526958,
402.9909058,0.0002397443459,402.9909058,0.6007442474,402.9909058,0.5632680655,402.9909058,0.5823093057,
401.9878235,0.0007036585012,401.9878235,0.5706335902,401.9878235,0.5448244214,401.9878235,0.558008492,
400.9845276,-0.000139865253,400.9845276,0.5459164381,400.9845276,0.5204549432,400.9845276,0.5359404683,
399.9810791,8.576868277E-005,399.9810791,0.5274521112,399.9810791,0.504463315,399.9810791,0.5138611197,
399.0161133,0.0002604391484,399.0161133,0.5086829662,399.0161133,0.4911488295,399.0161133,0.4966905415,
398.0123596,0.0009160084301,398.0123596,0.4875770509,398.0123596,0.4760654867,398.0123596,0.4784675837,
397.0084534,0.0001385897049,397.0084534,0.4693299234,397.0084534,0.4597998261,397.0084534,0.4609448016,
396.004364,-1.522068305E-005,396.004364,0.4521228075,396.004364,0.4450692534,396.004364,0.4427945614,
395.0001526,-7.671923231E-005,395.0001526,0.4342477024,395.0001526,0.4326106012,395.0001526,0.4265365005,
393.9957581,-0.00016180893,393.9957581,0.4212185442,393.9957581,0.4219512343,393.9957581,0.4161591232,
392.9911499,-0.0008267869125,392.9911499,0.4072512686,392.9911499,0.4088833034,392.9911499,0.4029074311,
391.9864502,-8.520824485E-005,391.9864502,0.3930481374,391.9864502,0.3975283206,391.9864502,0.3876673281,
390.9815369,-0.0001591177861,390.9815369,0.3804199398,390.9815369,0.3854036331,390.9815369,0.3745846152,
390.0151672,-0.0009208224365,390.0151672,0.3697081208,390.0151672,0.3798850477,390.0151672,0.3651738763,
389.0100098,-0.0002501417184,389.0100098,0.3589940667,389.0100098,0.3707306683,389.0100098,0.3517499864,
388.0046387,-0.0003015703405,388.0046387,0.3485808074,388.0046387,0.3631671369,388.0046387,0.3431786895,
386.9991455,-0.0006128060631,386.9991455,0.3390324414,386.9991455,0.3547144532,386.9991455,0.3324838281,
385.9934692,0.0004765372723,385.9934692,0.3306460083,385.9934692,0.3472932279,385.9934692,0.3237535655,
384.9876404,0.0005058992538,384.9876404,0.322958678,384.9876404,0.3428390622,384.9876404,0.3169573247,
383.9816589,1.749926741E-005,383.9816589,0.3165369332,383.9816589,0.3364322782,383.9816589,0.3104597032,
383.0142212,8.486249135E-005,383.0142212,0.3103830218,383.0142212,0.3325987458,383.0142212,0.3048098683,
382.0079041,0.0002486800367,382.0079041,0.3066433966,382.0079041,0.3299658298,382.0079041,0.3002534807,
381.0014954,0.0001648731413,381.0014954,0.3037212491,381.0014954,0.3267912865,381.0014954,0.2961422801,
379.994873,0.0005138296983,379.994873,0.299904108,379.994873,0.3254230022,379.994873,0.293119818,
378.9881287,-8.686462388E-005,378.9881287,0.2996941209,378.9881287,0.3251939714,378.9881287,0.2916880846,
377.9812012,7.479100168E-005,377.9812012,0.2976197004,377.9812012,0.3248681724,377.9812012,0.2908693254,
377.0128784,-0.0002355501929,377.0128784,0.2973776162,377.0128784,0.3257445097,377.0128784,0.2886120975,
376.0056763,0.0008123620646,376.0056763,0.2974278331,376.0056763,0.3261179924,376.0056763,0.2894106805,
374.9983215,-5.073620287E-006,374.9983215,0.2976305783,374.9983215,0.3291657865,374.9983215,0.2900082469,
373.9908142,0.0001211632334,373.9908142,0.2994457781,373.9908142,0.3316444457,373.9908142,0.2903763056,
372.9831238,0.0002810313308,372.9831238,0.3005628586,372.9831238,0.3340471685,372.9831238,0.2914280295,
372.0140686,-4.390038157E-005,372.0140686,0.3021612763,372.0140686,0.3382576406,372.0140686,0.2941220999,
371.006073,0.0005365072866,371.006073,0.306497246,371.006073,0.3425216675,371.006073,0.2967094481,
369.9979858,-0.0009215457249,369.9979858,0.3091749549,369.9979858,0.3458951116,369.9979858,0.2989725471,
368.9896851,-0.0006693092873,368.9896851,0.3123871088,368.9896851,0.3489594758,368.9896851,0.3013727069,
367.9812927,-9.664745448E-005,367.9812927,0.3157529533,367.9812927,0.3528192341,367.9812927,0.3045674264,
367.0115051,0.0003100433387,367.0115051,0.3196961284,367.0115051,0.3556911349,367.0115051,0.3078694344,
366.0028076,5.146435433E-005,366.0028076,0.3237722516,366.0028076,0.3595673144,366.0028076,0.3105669022,
364.9939575,0.0001094855616,364.9939575,0.3269643486,364.9939575,0.3624392748,364.9939575,0.3132193983,
363.9848938,-0.0001500091603,363.9848938,0.3298539519,363.9848938,0.3648112714,363.9848938,0.3159577549,
363.0145264,-0.0008315408486,363.0145264,0.3336517215,363.0145264,0.3671755791,363.0145264,0.3184580803,
362.005249,0.002370441565,362.005249,0.3386504054,362.005249,0.3685126901,362.005249,0.3200366795,
360.9957886,-0.001482699416,360.9957886,0.3381237388,360.9957886,0.3685624897,360.9957886,0.3208919168,
359.9861755,8.683021588E-005,359.9861755,0.3414946795,359.9861755,0.3696545064,359.9861755,0.3212285638,
359.0152893,0.0009699682705,359.0152893,0.3419704437,359.0152893,0.3706543744,359.0152893,0.3216585517,
358.0054016,-0.0005139981513,358.0054016,0.3414619565,358.0054016,0.367569983,358.0054016,0.32049191,
356.9953308,-6.766065053E-005,356.9953308,0.3436765373,356.9953308,0.3681770563,356.9953308,0.3202848136,
355.985199,-0.0001035832902,355.985199,0.3425507545,355.985199,0.3662676513,355.985199,0.3180828393,
355.0137024,-0.0007007886888,355.0137024,0.3403132558,355.0137024,0.3635866046,355.0137024,0.3168298602,
354.0032349,0.000408620981,354.0032349,0.339605242,354.0032349,0.3615445197,354.0032349,0.3132218122,
352.9926453,3.616420508E-005,352.9926453,0.3388138115,352.9926453,0.3575650156,352.9926453,0.3112014234,
351.9818726,-0.0004570609308,351.9818726,0.3342763484,351.9818726,0.3553969264,351.9818726,0.3057565391,
351.0098572,0.0002814716718,351.0098572,0.3305750787,351.0098572,0.3500680029,351.0098572,0.3034598529,
349.9988098,-0.0003934954875,349.9988098,0.3270423412,349.9988098,0.345743686,349.9988098,0.2970430255,
348.9876404,0.0001148712327,348.9876404,0.3240833282,348.9876404,0.3399578631,348.9876404,0.2937547863,
348.0152283,0.0005213714903,348.0152283,0.3215649128,348.0152283,0.3364028931,348.0152283,0.2893268764,
347.0037842,0.0001944730466,347.0037842,0.3158367276,347.0037842,0.3296613693,347.0037842,0.2827246487,
345.9921875,0.0003490053932,345.9921875,0.311229974,345.9921875,0.3240500391,345.9921875,0.2772082388,
345.0193481,4.144541163E-005,345.0193481,0.3074384332,345.0193481,0.3191018105,345.0193481,0.2727697492,
344.0074768,-0.0001036350513,344.0074768,0.3027536571,344.0074768,0.3118114173,344.0074768,0.2666112185,
342.9954834,-0.0001857179886,342.9954834,0.2983353138,342.9954834,0.306838423,342.9954834,0.2610985339,
341.9833069,-0.0005379912327,341.9833069,0.2924706936,341.9833069,0.3012690842,341.9833069,0.254540503,
341.0099487,-0.0003221607767,341.0099487,0.2889504135,341.0099487,0.2944791317,341.0099487,0.2497800589,
339.9975281,0.000191028681,339.9975281,0.2849744558,339.9975281,0.2899206877,339.9975281,0.245139569,
338.9849548,-5.037117444E-005,338.9849548,0.2795345783,338.9849548,0.2833954394,338.9849548,0.2379917651,
338.0112,-0.0002659745223,338.0112,0.2759971023,338.0112,0.2784567773,338.0112,0.2339649349,
336.9983215,-3.157973333E-005,336.9983215,0.2704547048,336.9983215,0.2723757625,336.9983215,0.2276385427,
335.9853821,-0.0001030656931,335.9853821,0.2656377554,335.9853821,0.2663445771,335.9853821,0.2219420224,
335.0112305,8.100474952E-005,335.0112305,0.2612356544,335.0112305,0.2614830136,335.0112305,0.2168535739,
333.9979858,-0.0003116070002,333.9979858,0.2575888038,333.9979858,0.2551870048,333.9979858,0.2114156187,
332.9846191,0.0005322567886,332.9846191,0.2542973757,332.9846191,0.2509842813,332.9846191,0.2060951144,
332.0100708,0.0009382920107,332.0100708,0.2499142885,332.0100708,0.2460033894,332.0100708,0.2002022862,
330.9964294,0.0001414380677,330.9964294,0.243986249,330.9964294,0.2378566563,330.9964294,0.1933050156,
329.9826355,3.681140879E-005,329.9826355,0.2406170964,329.9826355,0.2339597344,329.9826355,0.1886466444,
329.0077209,0.0006081764004,329.0077209,0.2362863868,329.0077209,0.2277320325,329.0077209,0.1833845377,
327.9936829,-0.0002907573944,327.9936829,0.2315808535,327.9936829,0.2218222916,327.9936829,0.1774276942,
327.0185242,-9.752737969E-005,327.0185242,0.227846846,327.0185242,0.2162713706,327.0185242,0.172395125,
326.0041809,0.0002855125058,326.0041809,0.2248927355,326.0041809,0.2130039632,326.0041809,0.1685366482,
324.9897461,-0.0005710829864,324.9897461,0.2204523236,324.9897461,0.2088339329,324.9897461,0.1646761447,
324.0142212,-0.0001416766754,324.0142212,0.2186143249,324.0142212,0.20597893,324.0142212,0.1603044719,
322.9994812,-0.0001834927534,322.9994812,0.2169474959,322.9994812,0.2011677325,322.9994812,0.1563796848,
321.9846802,0.0003568034153,321.9846802,0.2141067088,321.9846802,0.2000090182,321.9846802,0.1534978151,
321.0087585,-0.0001439021435,321.0087585,0.2124496102,321.0087585,0.1966009885,321.0087585,0.1501599401,
319.9936523,0.0003612853761,319.9936523,0.209662497,319.9936523,0.1933627874,319.9936523,0.1477899551,
319.0174866,-0.0003695461201,319.0174866,0.2079593241,319.0174866,0.1909816265,319.0174866,0.1446012557,
318.0021667,-0.000162792232,318.0021667,0.2071509063,318.0021667,0.1895729601,318.0021667,0.143149808,
316.9866638,0.0005499589606,316.9866638,0.2074634582,316.9866638,0.1896193922,316.9866638,0.1417078525,
316.0101013,-0.0002007769217,316.0101013,0.206620127,316.0101013,0.1891202778,316.0101013,0.1405441016,
314.9943848,-0.0004211157793,314.9943848,0.2076850086,314.9943848,0.1889887005,314.9943848,0.139330402,
314.0176392,0.0001580366952,314.0176392,0.2090762258,314.0176392,0.1901006252,314.0176392,0.1395536214,
313.0016479,-0.0006790790358,313.0016479,0.21101062,313.0016479,0.1915270984,313.0016479,0.1409347504,
311.9855347,0.00060890225,311.9855347,0.2154093832,311.9855347,0.1943052262,311.9855347,0.1423405111,
311.0083923,0.00037312528,311.0083923,0.2186854482,311.0083923,0.1975041032,311.0083923,0.144655183,
309.9920044,3.901190576E-005,309.9920044,0.2226728648,309.9920044,0.2011723816,309.9920044,0.1464465559,
309.0146484,-8.494943904E-005,309.0146484,0.2287211865,309.0146484,0.2076545656,309.0146484,0.1502776593,
307.9980164,0.0002252663398,307.9980164,0.2375047803,307.9980164,0.214363575,307.9980164,0.1549442708,
306.9812927,-0.000959464116,306.9812927,0.2496462464,306.9812927,0.2255506217,306.9812927,0.1606684923,
306.00354,0.0007186192088,306.00354,0.26744771,306.00354,0.2401963621,306.00354,0.1708430797,
304.9865417,0.0003230734728,304.9865417,0.2858833671,304.9865417,0.2566935122,304.9865417,0.1767053306,
304.0085754,-0.0004791437241,304.0085754,0.3059165776,304.0085754,0.2805953324,304.0085754,0.1890345067,
302.9913635,-2.474628127E-005,302.9913635,0.3384858072,302.9913635,0.304585278,302.9913635,0.2030846179,
302.0131531,-0.0001991209865,302.0131531,0.371722877,302.0131531,0.3410862088,302.0131531,0.2189930379,
300.9956665,5.884279381E-005,300.9956665,0.4055491388,300.9956665,0.3735293746,300.9956665,0.2354025692,
300.0172119,0.001821501297,300.0172119,0.4453782737,300.0172119,0.4094212949,300.0172119,0.2536892891,
298.9995422,0.001136352075,298.9995422,0.4922574162,298.9995422,0.465954721,298.9995422,0.2760806084,
297.9816895,0.00214676559,297.9816895,0.5554716587,297.9816895,0.5151013136,297.9816895,0.2913091481,
297.0028992,0.002243887633,297.0028992,0.6003771424,297.0028992,0.5643137693,297.0028992,0.3102353811,
295.9848633,0.001191014191,295.9848633,0.6732978821,295.9848633,0.6344266534,295.9848633,0.3321616948,
295.0058289,-0.002733325819,295.0058289,0.7356154323,295.0058289,0.7051820159,295.0058289,0.3637483716,
293.9875183,-0.0002179569274,293.9875183,0.8225569725,293.9875183,0.8038054109,293.9875183,0.397454083,
293.0082397,0.0008272486739,293.0082397,0.9249759912,293.0082397,0.8965775371,293.0082397,0.4213102758,
291.9896851,0.006911931094,291.9896851,1.064801931,291.9896851,1.013706446,291.9896851,0.4764846861,
291.0102234,0.003009812674,291.0102234,1.165245295,291.0102234,1.122059464,291.0102234,0.4987644553,
289.9914856,0.009596282616,289.9914856,1.197087884,289.9914856,1.163882256,289.9914856,0.5221327543,
289.0117798,0.004522001836,289.0117798,1.258148551,289.0117798,1.205387473,289.0117798,0.5361950397,
287.9927673,0.002459829673,287.9927673,1.338201761,287.9927673,1.314409614,287.9927673,0.5569477081,
287.0128174,-0.008814253844,287.0128174,1.424882174,287.0128174,1.395833135,287.0128174,0.5852921605,
285.9936523,-0.001466756104,285.9936523,1.521454692,285.9936523,1.489853859,285.9936523,0.6355857253,
285.0134888,-0.002230499405,285.0134888,1.615731955,285.0134888,1.552592039,285.0134888,0.6662097573,
283.9940186,-0.002022620058,283.9940186,1.648038387,283.9940186,1.603555441,283.9940186,0.681894362,
283.0136414,0.0006930282107,283.0136414,1.695212603,283.0136414,1.629867673,283.0136414,0.6979339123,
281.993988,0.003356028814,281.993988,1.669350386,281.993988,1.650598526,281.993988,0.7000985146,
281.0133972,-0.0003329212195,281.0133972,1.703698516,281.0133972,1.677311301,281.0133972,0.7052177191,
279.9934692,-0.001441111439,279.9934692,1.693239212,279.9934692,1.645820975,279.9934692,0.7157983184,
279.0126953,3.569821638E-005,279.0126953,1.734403849,279.0126953,1.710648894,279.0126953,0.7126153111,
277.9925537,0.0001640703704,277.9925537,1.714449644,277.9925537,1.671190023,277.9925537,0.7126412988,
277.0115356,0.0001729009091,277.0115356,1.716270328,277.0115356,1.687197566,277.0115356,0.7079679966,
275.9911804,0.0005794296158,275.9911804,1.727469683,275.9911804,1.682637334,275.9911804,0.7014430165,
275.0099487,0.00110705127,275.0099487,1.683700323,275.0099487,1.658877134,275.0099487,0.6954285502,
273.9893494,-0.00299331313,273.9893494,1.655565262,273.9893494,1.615448236,273.9893494,0.6788503528,
273.0079346,-0.001539553981,273.0079346,1.646451354,273.0079346,1.600064039,273.0079346,0.6652045846,
271.9871521,-0.0007046653191,271.9871521,1.628564,271.9871521,1.550490618,271.9871521,0.6519144177,
271.0055237,0.0008789148997,271.0055237,1.580677867,271.0055237,1.516906857,271.0055237,0.634855926,
269.9844666,0.0006797536043,269.9844666,1.563132882,269.9844666,1.506798983,269.9844666,0.6282996535,
269.0026245,-0.001658965484,269.0026245,1.548596144,269.0026245,1.478049278,269.0026245,0.6155905724,
267.9814148,0.003405596362,267.9814148,1.520007968,267.9814148,1.440605164,267.9814148,0.5980166197,
266.9993286,0.0002925840963,266.9993286,1.436975718,266.9993286,1.374131203,266.9993286,0.5804255009,
266.0171814,0.001052607317,266.0171814,1.412236571,266.0171814,1.340745091,266.0171814,0.5695325732,
264.9956055,-0.0003673218307,264.9956055,1.368049383,264.9956055,1.330903172,264.9956055,0.5539372563,
264.0132446,0.0008555969107,264.0132446,1.325582981,264.0132446,1.266581655,264.0132446,0.5321015716,
262.9915161,0.000317944272,262.9915161,1.276979923,262.9915161,1.21082294,262.9915161,0.5185767412,
262.0089417,-0.001387134078,262.0089417,1.226458549,262.0089417,1.153962612,262.0089417,0.5056615472,
260.9869385,0.0005336563336,260.9869385,1.187925577,260.9869385,1.121896029,260.9869385,0.4936612546,
260.0041809,-0.0005000877427,260.0041809,1.171993494,260.0041809,1.104166389,260.0041809,0.4827107191,
258.9820251,0.0003382024006,258.9820251,1.13811326,258.9820251,1.077372193,258.9820251,0.4776666164,
257.999054,-4.177794472E-005,257.999054,1.092661023,257.999054,1.035997391,257.999054,0.4694129527,
257.0159912,-0.003801237326,257.0159912,1.062020659,257.0159912,0.9908216596,257.0159912,0.4481361508,
255.9934692,-0.001279055956,255.9934692,1.013802171,255.9934692,0.9439079165,255.9934692,0.4358613491,
255.0102081,-0.001017730101,255.0102081,0.9881864786,255.0102081,0.9217454195,255.0102081,0.4312579632,
253.9875031,-0.0002115921234,253.9875031,0.9788176417,253.9875031,0.901694715,253.9875031,0.4317493141,
253.0040436,-1.325341327E-005,253.0040436,0.9687327147,253.0040436,0.8941493034,253.0040436,0.4307286739,
251.9811554,-0.0002731146233,251.9811554,0.9621008635,251.9811554,0.88653332,251.9811554,0.4288991094,
250.9974976,-0.001250044676,250.9974976,0.9488595724,250.9974976,0.8792514205,250.9974976,0.4274258018,
250.0137787,0.0002945268643,250.0137787,0.9508405924,250.0137787,0.8696362376,250.0137787,0.4285926223,
248.9905396,0.001931421109,248.9905396,0.9819367528,248.9905396,0.8838584423,248.9905396,0.43957901,
248.0066071,-0.0001617054222,248.0066071,1.013359308,248.0066071,0.9176053405,248.0066071,0.4563076794,
246.9832306,-0.003637390444,246.9832306,1.042528868,246.9832306,0.9583215117,246.9832306,0.4736816883,
245.999115,-0.003487040522,245.999115,1.109352589,245.999115,1.012753963,245.999115,0.4798347056,
245.0148773,-0.01312030759,245.0148773,1.196460843,245.0148773,1.099083066,245.0148773,0.5290082097,
243.9911652,-0.004271491431,243.9911652,1.324050069,243.9911652,1.225190878,243.9911652,0.5727185607,
243.0067444,-0.001462679938,243.0067444,1.452672362,243.0067444,1.372597456,243.0067444,0.6190079451,
241.9828949,0.01070575975,241.9828949,1.581363678,241.9828949,1.51855576,241.9828949,0.6852363348,
240.998291,-0.002825818025,240.998291,1.761473417,240.998291,1.648254275,240.998291,0.7430855036,
240.0135956,0.01725785434,240.0135956,1.840278864,240.0135956,1.631508946,240.0135956,0.8566369414,
238.9893951,-0.005863482598,238.9893951,1.669201851,238.9893951,1.829362273,238.9893951,0.9588940144,
238.0045471,0.004569950048,238.0045471,1.325971127,238.0045471,1.373524904,238.0045471,0.9867611527,
237.0195923,0.01776741818,237.0195923,1.147206426,237.0195923,1.211535692,237.0195923,0.9313571453,
235.9951324,0.06370207667,235.9951324,0.7649794221,235.9951324,0.6283275485,235.9951324,0.6896356344,
235.0099792,0.04426194355,235.0099792,1.145914674,235.0099792,0.4101740718,235.0099792,0.4981278479,
233.9853058,-0.1485741884,233.9853058,0.4832729101,233.9853058,0.4154241979,233.9853058,10,
233.0000153,0.177193284,233.0000153,0.3673219979,233.0000153,0.141766116,233.0000153,0.2659075558,
232.0145874,0.1463611424,232.0145874,10,232.0145874,0.1552604884,232.0145874,-0.06172337011,
230.9896545,0.6409707069,230.9896545,10,230.9896545,0.8180206418,230.9896545,1.3611871,
230.0040436,0.07897352427,230.0040436,-0.05560784042,230.0040436,0.319963634,230.0040436,0.08303184062,
229.0183716,10,229.0183716,0.06349047273,229.0183716,-0.2434638739,229.0183716,-0.2257076055,
227.9931793,-0.1025644392,227.9931793,0.1203098148,227.9931793,0.1426159292,227.9931793,0.2860352397,
227.0073395,-0.0724459812,227.0073395,0.1142750382,227.0073395,0.0251754187,227.0073395,0.1287369579,
225.9819183,0.06321587414,225.9819183,0.5886653662,225.9819183,0.03099410422,225.9819183,0.01870964095,
224.9959259,0.06980030984,224.9959259,0.4570486844,224.9959259,-0.1270718873,224.9959259,0.2769217491,
224.0097961,-0.1038761064,224.0097961,0.1619705409,224.0097961,0.03237123415,224.0097961,0.2007561475,
222.9841614,-0.4676285088,222.9841614,-0.4878068864,222.9841614,-0.3644364476,222.9841614,-0.5467994809,
221.9978485,-0.07479838282,221.9978485,0.1290439516,221.9978485,0.07877095044,221.9978485,0.2917832732,
221.0114899,-0.2565183938,221.0114899,10,221.0114899,10,221.0114899,-0.5972626805,
219.9855499,0.1476623267,219.9855499,0.6466972828,219.9855499,0.2730414271,219.9855499,10,
218.9989929,0.2058020532,218.9989929,0.474265039,218.9989929,10,218.9989929,-0.04501947761,
218.0123901,-0.1321070045,218.0123901,0.7587862611,218.0123901,0.0963274464,218.0123901,-0.07323218882,
216.9862061,10,216.9862061,10,216.9862061,0.3754208684,216.9862061,0.4504949152,
215.9994202,0.3290085196,215.9994202,0.5591162443,215.9994202,0.1628568769,215.9994202,0.251555413,
215.0125275,0.1794221997,215.0125275,0.3829613328,215.0125275,0.5603903532,215.0125275,-0.03629950806,
213.9861145,0.7500686646,213.9861145,0.6632481813,213.9861145,10,213.9861145,0.3981515765,
212.999054,-0.2095308304,212.999054,10,212.999054,10,212.999054,-0.2808685899,
212.0119629,0.2692143619,212.0119629,0.05164329335,212.0119629,0.0255019702,212.0119629,0.7924332619,
210.98526,-0.4502163529,210.98526,-0.184929505,210.98526,-0.2969913483,210.98526,-0.1607373655,
209.9979858,3.742347956,209.9979858,3.621453285,209.9979858,3.817118883,209.9979858,10,
209.0106049,0.2444729805,209.0106049,10,209.0106049,0.9390713573,209.0106049,0.4711470604,
207.9836884,0.3593536019,207.9836884,0.1213281974,207.9836884,-0.103495419,207.9836884,-0.2738633752,
206.9961395,0.1121363044,206.9961395,0.2067391127,206.9961395,0.2719743252,206.9961395,-0.2288346738,
206.0085602,-0.1436557025,206.0085602,0.03133146092,206.0085602,0.02610431612,206.0085602,0.3447130919,
204.9813538,0.2417984754,204.9813538,-0.2882661521,204.9813538,0.7958184481,204.9813538,0.3796002865,
203.9936066,0.1776700616,203.9936066,0.3341170549,203.9936066,-0.2356501073,203.9936066,-0.1861581206,
203.0057373,-0.3474411666,203.0057373,-0.1793608069,203.0057373,-0.2774447799,203.0057373,0.3028824031,
202.0178375,-0.1942584366,202.0178375,0.538066268,202.0178375,-0.247496143,202.0178375,-0.2590149939,
200.9903259,-0.2470175326,200.9903259,-0.05800963193,200.9903259,-0.06321500987,200.9903259,10,
200.0022583,0.4198400378,200.0022583,0.4042476416,200.0022583,0.2844754159,200.0022583,0.433198601,

baseline,
baseline
Collection Time: 12/03/2021 10:38:15
Operator Name  :
Scan Version 5.0.0.999
Parameter List :
Instrument  Cary 60
Instrument Version  2.00
Start (nm)  800.0
Stop (nm)  200.0
X Mode  Nanometers
Y Mode  Abs
UV-Vis Scan Rate (nm/min)  4800.000
UV-Vis Data Interval (nm)  1.00
UV-Vis Ave. Time (sec)  0.0125
Beam Mode  Dual Beam
Baseline Correction  On
Baseline Type  Baseline correction
Baseline File Name
Baseline Std Ref File Name
Cycle Mode  Off
Method Log     :
Method Name    :
Date/Time stamp: 12/03/2021 10:37:42
Method Modifications:
Common Interval nm Changed: 12/03/2021 10:37:58, Old:     5.00, New:     1.00
Baseline Correction Changed: 12/03/2021 10:37:58, Old:0, New:1
Storage Changed: 12/03/2021 10:37:58, Old:1, New:0
End Method Modifications
<Current Wavelength> , 268.0

wt,
baseline1
Collection Time: 12/03/2021 10:38:33
Operator Name  :
Scan Version 5.0.0.999
Parameter List :
Instrument  Cary 60
Instrument Version  2.00
Start (nm)  800.0
Stop (nm)  200.0
X Mode  Nanometers
Y Mode  Abs
UV-Vis Scan Rate (nm/min)  4800.000
UV-Vis Data Interval (nm)  1.00
UV-Vis Ave. Time (sec)  0.0125
Beam Mode  Dual Beam
Baseline Correction  On
Baseline Type  Baseline correction
Baseline File Name
Baseline Std Ref File Name
Cycle Mode  Off
Method Log     :
Method Name    :
Date/Time stamp: 12/03/2021 10:37:42
Method Modifications:
Common Interval nm Changed: 12/03/2021 10:37:58, Old:     5.00, New:     1.00
Baseline Correction Changed: 12/03/2021 10:37:58, Old:0, New:1
Storage Changed: 12/03/2021 10:37:58, Old:1, New:0
End Method Modifications
<Current Wavelength> , 229.0
Continuum name changed to 'wt'

a82f,
a83f
Collection Time: 12/03/2021 10:38:54
Operator Name  :
Scan Version 5.0.0.999
Parameter List :
Instrument  Cary 60
Instrument Version  2.00
Start (nm)  800.0
Stop (nm)  200.0
X Mode  Nanometers
Y Mode  Abs
UV-Vis Scan Rate (nm/min)  4800.000
UV-Vis Data Interval (nm)  1.00
UV-Vis Ave. Time (sec)  0.0125
Beam Mode  Dual Beam
Baseline Correction  On
Baseline Type  Baseline correction
Baseline File Name
Baseline Std Ref File Name
Cycle Mode  Off
Method Log     :
Method Name    :
Date/Time stamp: 12/03/2021 10:37:42
Method Modifications:
Common Interval nm Changed: 12/03/2021 10:37:58, Old:     5.00, New:     1.00
Baseline Correction Changed: 12/03/2021 10:37:58, Old:0, New:1
Storage Changed: 12/03/2021 10:37:58, Old:1, New:0
End Method Modifications
<Current Wavelength> , 205.0
Continuum name changed to 'a82f'

dm,
dm
Collection Time: 12/03/2021 10:39:12
Operator Name  :
Scan Version 5.0.0.999
Parameter List :
Instrument  Cary 60
Instrument Version  2.00
Start (nm)  800.0
Stop (nm)  200.0
X Mode  Nanometers
Y Mode  Abs
UV-Vis Scan Rate (nm/min)  4800.000
UV-Vis Data Interval (nm)  1.00
UV-Vis Ave. Time (sec)  0.0125
Beam Mode  Dual Beam
Baseline Correction  On
Baseline Type  Baseline correction
Baseline File Name
Baseline Std Ref File Name
Cycle Mode  Off
Method Log     :
Method Name    :
Date/Time stamp: 12/03/2021 10:37:42
Method Modifications:
Common Interval nm Changed: 12/03/2021 10:37:58, Old:     5.00, New:     1.00
Baseline Correction Changed: 12/03/2021 10:37:58, Old:0, New:1
Storage Changed: 12/03/2021 10:37:58, Old:1, New:0
End Method Modifications
<Current Wavelength> , 223.0

