blank,,bm3-a82f-heme-20in1000-tube-53,,bm3-a82f-heme-20in1000-tube-54,,bm3-a82f-heme-20in1000-tube-55,,bm3-a82f-heme-20in1000-tube-57,,bm3-a82f-heme-20in1000-post-lipidex,,
Wavelength (nm),Abs,Wavelength (nm),Abs,Wavelength (nm),Abs,Wavelength (nm),Abs,Wavelength (nm),Abs,Wavelength (nm),Abs,
799.9969482,4.506980986E-005,799.9969482,0.04333304241,799.9969482,0.02744394355,799.9969482,0.002308031777,799.9969482,0.007762398571,799.9969482,0.002109124558,
798.9923096,-0.0006447031046,798.9923096,0.04547894374,798.9923096,0.02826937102,798.9923096,0.009007824585,798.9923096,0.003604315454,798.9923096,0.002194556408,
797.9871826,-0.0001948776189,797.9871826,0.04148861393,797.9871826,0.02016564645,797.9871826,0.003996958025,797.9871826,0.002599519212,797.9871826,0.002694111783,
797.0163574,-0.0003460092994,797.0163574,0.04115702212,797.0163574,0.02136943117,797.0163574,0.007837984711,797.0163574,0.003798059188,797.0163574,0.002492918866,
796.010437,0.000810053898,796.010437,0.04154287279,796.010437,0.02814454213,796.010437,0.009616502561,796.010437,0.003644331126,796.010437,0.003493684344,
795.0041504,-0.0007653427892,795.0041504,0.04198925197,795.0041504,0.01926453225,795.0041504,0.008414645679,795.0041504,0.002402404789,795.0041504,0.001996403327,
793.9974365,0.001077129622,793.9974365,0.0429424569,793.9974365,0.02423914336,793.9974365,0.007417182438,793.9974365,0.004063504282,793.9974365,0.002462667413,
792.9903564,-0.0001065853357,792.9903564,0.04198628664,792.9903564,0.02456077188,792.9903564,0.009182974696,792.9903564,0.00389852887,792.9903564,0.002023085486,
791.9828491,0.0005744269583,791.9828491,0.04167081416,791.9828491,0.02359463274,791.9828491,0.005588524509,791.9828491,0.007743266877,791.9828491,0.003459501313,
791.0097046,-0.0005499355611,791.0097046,0.04644482955,791.0097046,0.0243927259,791.0097046,0.004319908563,791.0097046,0.00724666426,791.0097046,0.002447334118,
790.0013428,0.0007851058035,790.0013428,0.0418180041,790.0013428,0.02815945633,790.0013428,0.009792825207,790.0013428,0.007729564328,790.0013428,0.002490029205,
788.9926758,0.001192519674,788.9926758,0.040966589,788.9926758,0.02487268671,788.9926758,0.006756439805,788.9926758,0.005370706785,788.9926758,0.002330152784,
787.9835815,0.002016349696,787.9835815,0.04547008872,787.9835815,0.02289505117,787.9835815,0.006922004279,787.9835815,0.004251048435,787.9835815,0.003432026133,
787.0089111,0.0004941594088,787.0089111,0.04343897104,787.0089111,0.02375050262,787.0089111,0.00375531381,787.0089111,0.00813331455,787.0089111,0.003664849559,
785.9989624,0.0001358449226,785.9989624,0.04166126996,785.9989624,0.0259754099,785.9989624,0.005352807231,785.9989624,0.008490794338,785.9989624,0.002819312038,
784.9887695,0.0002639099548,784.9887695,0.04151806235,784.9887695,0.02299646288,784.9887695,0.007937442511,784.9887695,0.00700289011,784.9887695,0.002441320801,
784.0128784,-0.0003618386108,784.0128784,0.04324235395,784.0128784,0.02427776717,784.0128784,0.007227107882,784.0128784,0.001887532999,784.0128784,0.003370193997,
783.001709,-0.0004313048557,783.001709,0.04586267099,783.001709,0.01884678937,783.001709,0.008884341456,783.001709,0.005176574457,783.001709,0.001573192305,
781.9902954,0.001788203255,781.9902954,0.04333035275,781.9902954,0.02391849086,781.9902954,0.008731681854,781.9902954,0.003288599662,781.9902954,0.003104494652,
781.0134277,0.0002347456175,781.0134277,0.04688526317,781.0134277,0.0219713524,781.0134277,0.009312466718,781.0134277,0.006973743439,781.0134277,0.002686167601,
780.0010986,0.0001208525136,780.0010986,0.0416597873,780.0010986,0.0247732494,780.0010986,0.009376049973,780.0010986,0.006626866292,780.0010986,0.002156208968,
778.9884644,0.0005900571123,778.9884644,0.04546319321,778.9884644,0.02457997389,778.9884644,0.009535181336,778.9884644,0.004842228256,778.9884644,0.004269085824,
778.010376,0.0004434717703,778.010376,0.04301899299,778.010376,0.02196454443,778.010376,0.009477579966,778.010376,0.007069372572,778.010376,0.002573061967,
776.9969482,-0.001982526854,776.9969482,0.0415372625,776.9969482,0.02506995946,776.9969482,0.007956135087,776.9969482,0.006818598136,776.9969482,0.001658466761,
775.9831543,-0.0009520253516,775.9831543,0.04576906562,775.9831543,0.0259751901,775.9831543,0.007145890966,775.9831543,0.007829366252,775.9831543,0.002365158172,
775.0039063,-6.621125794E-005,775.0039063,0.04582610354,775.0039063,0.02548014559,775.0039063,0.008848727681,775.0039063,0.008026797324,775.0039063,0.003048756858,
773.9893188,0.0005380883231,773.9893188,0.04380649328,773.9893188,0.02830957063,773.9893188,0.007596960757,773.9893188,0.007326557767,773.9893188,0.003083377145,
773.0093384,0.0003778924001,773.0093384,0.04675859958,773.0093384,0.02687366121,773.0093384,0.007190050557,773.0093384,0.006472186651,773.0093384,0.002822021721,
771.9940186,-0.000644392916,771.9940186,0.04744647816,771.9940186,0.02470860444,771.9940186,0.00715270685,771.9940186,0.005401083268,771.9940186,0.002520386828,
771.0132446,-0.0006460988661,771.0132446,0.04137390852,771.0132446,0.02618673816,771.0132446,0.006318822037,771.0132446,0.005996823311,771.0132446,0.002417476149,
769.9971313,0.001057511661,769.9971313,0.04791668802,769.9971313,0.02855839022,769.9971313,0.008627024479,769.9971313,0.005205496214,769.9971313,0.002765616868,
769.015686,0.0003262857499,769.015686,0.04531047866,769.015686,0.02465057187,769.015686,0.01025590394,769.015686,0.004606130533,769.015686,0.002802845789,
767.9988403,-0.0005394390319,767.9988403,0.04677909985,767.9988403,0.02195888199,767.9988403,0.009142577648,767.9988403,0.007657685317,767.9988403,0.002177801682,
767.0166626,-0.0006192166475,767.0166626,0.04475721344,767.0166626,0.02485635132,767.0166626,0.01050214749,767.0166626,0.003651666455,767.0166626,0.003237715224,
765.9989624,0.0001389004319,765.9989624,0.04736442491,765.9989624,0.0281689316,765.9989624,0.01073871367,765.9989624,0.00771559868,765.9989624,0.003382977331,
765.0160522,-0.000371822156,765.0160522,0.04334963113,765.0160522,0.02548110671,765.0160522,0.006554118358,765.0160522,0.005199864041,765.0160522,0.003255475778,
763.9975586,0.000815448293,763.9975586,0.0460931994,763.9975586,0.02884478122,763.9975586,0.007448466029,763.9975586,0.008146449924,763.9975586,0.003863373771,
763.0139771,-0.000282324123,763.0139771,0.04648023471,763.0139771,0.02610879764,763.0139771,0.008010555059,763.0139771,0.004644852132,763.0139771,0.002656970406,
761.994751,-0.000465283927,761.994751,0.04733910784,761.994751,0.02479662746,761.994751,0.007711250801,761.994751,0.007988933474,761.994751,0.002449338557,
761.010376,-0.0003827882756,761.010376,0.0486472249,761.010376,0.02436572872,761.010376,0.008975820616,761.010376,0.008724233136,761.010376,0.001738481922,
759.9904785,-0.0001553915499,759.9904785,0.04631760344,759.9904785,0.02768677659,759.9904785,0.008128593676,759.9904785,0.00691206241,759.9904785,0.003583382349,
759.0053101,0.0005992333172,759.0053101,0.04555497691,759.0053101,0.02609810419,759.0053101,0.01003840938,759.0053101,0.006349264644,759.0053101,0.003720405046,
757.9846191,0.0001671519713,757.9846191,0.04507993534,757.9846191,0.02647032961,757.9846191,0.01180828921,757.9846191,0.006466511171,757.9846191,0.003272298258,
756.9987793,-0.0003266615677,756.9987793,0.04474909231,756.9987793,0.02741686627,756.9987793,0.007872092538,756.9987793,0.005267459434,756.9987793,0.002311857417,
756.0124512,-0.000295568927,756.0124512,0.04372758791,756.0124512,0.02671884187,756.0124512,0.008107651956,756.0124512,0.006531071849,756.0124512,0.003095526015,
754.9906616,0.0003434613755,754.9906616,0.04806858301,754.9906616,0.02457550913,754.9906616,0.01256293338,754.9906616,0.009882959537,754.9906616,0.002745688194,
754.0037231,-0.0008074089419,754.0037231,0.0493606329,754.0037231,0.0249213744,754.0037231,0.008206511848,754.0037231,0.00992035307,754.0037231,0.002247035969,
753.0164185,0.0006173270522,753.0164185,0.04714043066,753.0164185,0.0262858402,753.0164185,0.01341272332,753.0164185,0.009637278505,753.0164185,0.003452012548,
751.9934692,-0.000218991845,751.9934692,0.0475866273,751.9934692,0.02605610155,751.9934692,0.01041949447,751.9934692,0.007268248592,751.9934692,0.003545486135,
751.0054321,-0.0004984846455,751.0054321,0.04713953659,751.0054321,0.02663001604,751.0054321,0.00903742481,751.0054321,0.009187892079,751.0054321,0.002730344888,
750.0170288,-5.580656216E-005,750.0170288,0.04751843587,750.0170288,0.02925602905,750.0170288,0.01028945949,750.0170288,0.009629814886,750.0170288,0.00432945136,
748.992981,0.001077077701,748.992981,0.0498923324,748.992981,0.02655257285,748.992981,0.008970456198,748.992981,0.009859312326,748.992981,0.003700954607,
748.0039063,-0.0007346433122,748.0039063,0.04666451365,748.0039063,0.02723911218,748.0039063,0.0102838669,748.0039063,0.007420552894,748.0039063,0.001870348235,
747.0144043,0.0003074010892,747.0144043,0.04827737808,747.0144043,0.02691687271,747.0144043,0.01109465398,747.0144043,0.008145131171,747.0144043,0.00447133882,
745.9891968,-0.000885742309,745.9891968,0.04771875963,745.9891968,0.02701371722,745.9891968,0.009165287018,745.9891968,0.006645791233,745.9891968,0.002384783002,
744.9990845,-0.0001088109784,744.9990845,0.04815826192,744.9990845,0.02949375659,744.9990845,0.01198247075,744.9990845,0.008889810182,744.9990845,0.002933472162,
744.0085449,-0.0004337874416,744.0085449,0.05144520476,744.0085449,0.02646636777,744.0085449,0.01047332212,744.0085449,0.008610283956,744.0085449,0.00259196735,
743.0176392,0.0006403211737,743.0176392,0.04738907889,743.0176392,0.02579305321,743.0176392,0.01252459176,743.0176392,0.00787957944,743.0176392,0.003184515983,
741.9910278,0.000394474162,741.9910278,0.04741436988,741.9910278,0.02885219455,741.9910278,0.0126104448,741.9910278,0.008991650306,741.9910278,0.004093710799,
740.9993896,-8.769280976E-005,740.9993896,0.04661061987,740.9993896,0.02689343505,740.9993896,0.01190006733,740.9993896,0.00640017353,740.9993896,0.00315859681,
740.0074463,0.0006334254285,740.0074463,0.04994884133,740.0074463,0.02848925442,740.0074463,0.01356244367,740.0074463,0.009341427125,740.0074463,0.004094547126,
739.0151367,0.000403283484,739.0151367,0.04968096316,739.0151367,0.02969108894,739.0151367,0.01086867042,739.0151367,0.008376431651,739.0151367,0.004003071226,
737.9871216,-2.893954843E-005,737.9871216,0.04821743816,737.9871216,0.02899875678,737.9871216,0.008945801295,737.9871216,0.00899159722,737.9871216,0.003367193975,
736.9940796,0.0001645882876,736.9940796,0.05056564882,736.9940796,0.0275322739,736.9940796,0.01342276111,736.9940796,0.01048713829,736.9940796,0.004252930637,
736.0006714,4.400837497E-005,736.0006714,0.04904213548,736.0006714,0.02919746935,736.0006714,0.0136099048,736.0006714,0.01070745755,736.0006714,0.003259961726,
735.007019,2.309089723E-005,735.007019,0.04724743217,735.007019,0.02937455848,735.007019,0.01136241946,735.007019,0.008971697651,735.007019,0.002621602966,
734.0129395,0.0003077378497,734.0129395,0.04819042236,734.0129395,0.02857876569,734.0129395,0.01333319675,734.0129395,0.009589798748,734.0129395,0.003787823021,
732.9830322,-0.0001375880092,732.9830322,0.04878683388,732.9830322,0.02984752692,732.9830322,0.01184848323,732.9830322,0.008693545125,732.9830322,0.00299307867,
731.9882202,0.0003215709876,731.9882202,0.04783376679,731.9882202,0.02996053174,731.9882202,0.01369896531,731.9882202,0.008969213814,731.9882202,0.004126585089,
730.993103,-2.169189975E-005,730.993103,0.05182137713,730.993103,0.0306006223,730.993103,0.01180791762,730.993103,0.009437075816,730.993103,0.003564512124,
729.9976807,-0.0002526253229,729.9976807,0.04844288528,729.9976807,0.03111196868,729.9976807,0.01153296605,729.9976807,0.009003674611,729.9976807,0.003502243664,
729.0018921,-0.0004131505557,729.0018921,0.05144573003,729.0018921,0.0305484347,729.0018921,0.01101786178,729.0018921,0.009666445665,729.0018921,0.003003400518,
728.0057373,-0.0007173286867,728.0057373,0.05124732107,728.0057373,0.02780476771,728.0057373,0.01330199372,728.0057373,0.01003681961,728.0057373,0.003144307993,
727.0092773,2.60161778E-005,727.0092773,0.04866262898,727.0092773,0.02857058123,727.0092773,0.01274120249,727.0092773,0.009208647534,727.0092773,0.003803516971,
726.0124512,2.531721475E-005,726.0124512,0.052321814,726.0124512,0.02859394439,726.0124512,0.01400595531,726.0124512,0.01200737897,726.0124512,0.00410549622,
725.0152588,0.0001979692315,725.0152588,0.05255109817,725.0152588,0.03232610971,725.0152588,0.01213390939,725.0152588,0.01001816988,725.0152588,0.00418761,
724.0177612,0.0004918011255,724.0177612,0.05069051683,724.0177612,0.03025958687,724.0177612,0.0131831551,724.0177612,0.01051254384,724.0177612,0.003941027448,
722.9842529,-0.000620819279,722.9842529,0.05113787204,722.9842529,0.02951594815,722.9842529,0.01258409023,722.9842529,0.01019921433,722.9842529,0.003301380435,
721.9860229,-0.0007776426501,721.9860229,0.05010842159,721.9860229,0.02821533568,721.9860229,0.01482940558,721.9860229,0.01210321765,721.9860229,0.003685917007,
720.9874878,-0.0005314243026,720.9874878,0.05056739226,720.9874878,0.02972734347,720.9874878,0.01190357935,720.9874878,0.008905241266,720.9874878,0.002277168678,
719.9885254,-0.000250969606,719.9885254,0.05000381917,719.9885254,0.0308005698,719.9885254,0.01147015579,719.9885254,0.009711629711,719.9885254,0.003102513263,
718.9894409,-9.742385737E-005,718.9894409,0.04998093098,718.9894409,0.02907843515,718.9894409,0.01222663466,718.9894409,0.00999960117,718.9894409,0.003653180553,
717.9898071,0.0001621022966,717.9898071,0.05145391822,717.9898071,0.03130856156,717.9898071,0.01201578882,717.9898071,0.01008471847,717.9898071,0.00371492235,
716.9898682,-9.474160834E-006,716.9898682,0.05078856274,716.9898682,0.0304454118,716.9898682,0.01230119076,716.9898682,0.01060319878,716.9898682,0.003583460581,
715.989624,0.0001742216264,715.989624,0.05199305713,715.989624,0.03086165339,715.989624,0.01269892696,715.989624,0.01156787015,715.989624,0.003672028426,
714.9890137,5.001456884E-005,714.9890137,0.05086832494,714.9890137,0.03048134223,714.9890137,0.01285672188,714.9890137,0.01168586966,714.9890137,0.003601470264,
713.9880981,0.0002493275388,713.9880981,0.05095666274,713.9880981,0.03219305724,713.9880981,0.01285450812,713.9880981,0.01077724341,713.9880981,0.003973994404,
712.9868164,-0.0004088575661,712.9868164,0.05167195201,712.9868164,0.03185545281,712.9868164,0.01195125841,712.9868164,0.01055450086,712.9868164,0.002980541438,
711.9852905,-0.0009092499386,711.9852905,0.05035537481,711.9852905,0.02969205752,711.9852905,0.01255560573,711.9852905,0.01076591201,711.9852905,0.002876948565,
710.9832764,-0.0007820354076,710.9832764,0.05093829334,710.9832764,0.03088777885,710.9832764,0.01162412763,710.9832764,0.01116559096,710.9832764,0.003536221338,
710.0167847,0.0002218217269,710.0167847,0.05320332944,710.0167847,0.03210090473,710.0167847,0.01315834001,710.0167847,0.01242191996,710.0167847,0.003254615236,
709.0142212,-0.0003309036547,709.0142212,0.05160145834,709.0142212,0.03124352172,709.0142212,0.01244128589,709.0142212,0.009997376241,709.0142212,0.003546660533,
708.0112915,0.0001511226874,708.0112915,0.05226333067,708.0112915,0.03122558072,708.0112915,0.0125767095,708.0112915,0.01044224389,708.0112915,0.003246347653,
707.0079956,3.927078797E-005,707.0079956,0.05104967207,707.0079956,0.03029644676,707.0079956,0.01366939209,707.0079956,0.01173131727,707.0079956,0.003917779308,
706.0043945,0.0004589417658,706.0043945,0.05245557055,706.0043945,0.03212877735,706.0043945,0.0141005246,706.0043945,0.01207899675,706.0043945,0.004569662269,
705.0004272,-0.0002493138309,705.0004272,0.05131834,705.0004272,0.03026649915,705.0004272,0.01262320951,705.0004272,0.01128919236,705.0004272,0.00293876254,
703.9962158,3.160791675E-005,703.9962158,0.05452065915,703.9962158,0.03080204315,703.9962158,0.01393781416,703.9962158,0.01021898445,703.9962158,0.003549583489,
702.9915771,-1.537599383E-005,702.9915771,0.05234564096,702.9915771,0.02899347059,702.9915771,0.01309678797,702.9915771,0.01359361224,702.9915771,0.003378359601,
701.9866943,-0.000267268013,701.9866943,0.0528248176,701.9866943,0.03235556185,701.9866943,0.01441082172,701.9866943,0.01138027571,701.9866943,0.003986299038,
701.0172729,0.0002832330647,701.0172729,0.05246097594,701.0172729,0.03127999231,701.0172729,0.01598946378,701.0172729,0.01324199699,701.0172729,0.003630548483,
700.0117188,0.0003505857021,700.0117188,0.05227676034,700.0117188,0.0322147198,700.0117188,0.01472886652,700.0117188,0.01252573729,700.0117188,0.003641746938,
699.0057373,5.979699836E-006,699.0057373,0.0537670888,699.0057373,0.03364263475,699.0057373,0.01334264688,699.0057373,0.01146590337,699.0057373,0.004209434614,
697.9995728,0.0002573827805,697.9995728,0.05556837097,697.9995728,0.03194044903,697.9995728,0.01439709496,697.9995728,0.01188216265,697.9995728,0.004046128597,
696.992981,-0.000540990266,696.992981,0.05457246304,696.992981,0.03235547617,696.992981,0.01627058536,696.992981,0.01044842228,696.992981,0.003219512058,
695.9860229,-0.0001393994462,695.9860229,0.05380010605,695.9860229,0.03250001743,695.9860229,0.01415446308,695.9860229,0.01117648091,695.9860229,0.003961559385,
695.0147705,-0.0005972443614,695.0147705,0.05450575054,695.0147705,0.03073438257,695.0147705,0.01717907563,695.0147705,0.01509251539,695.0147705,0.003324934514,
694.0072632,0.0006319736713,694.0072632,0.05630067363,694.0072632,0.03124772198,694.0072632,0.01385025494,694.0072632,0.01206885651,694.0072632,0.003639032133,
692.9993286,0.0004106160777,692.9993286,0.0586071983,692.9993286,0.03286012635,692.9993286,0.01876304671,692.9993286,0.01594319195,692.9993286,0.005139875226,
691.9911499,0.0002409875597,691.9911499,0.05288723484,691.9911499,0.03387298062,691.9911499,0.01774349995,691.9911499,0.0147163067,691.9911499,0.003571506822,
690.982605,0.0005107974284,690.982605,0.05537409708,690.982605,0.03193654865,690.982605,0.01598468423,690.982605,0.01359991543,690.982605,0.003682496957,
690.0097656,0.000553639431,690.0097656,0.05715292692,690.0097656,0.03240950033,690.0097656,0.0166395884,690.0097656,0.01656460762,690.0097656,0.004431063775,
689.0006104,0.0009064883343,689.0006104,0.05799034983,689.0006104,0.03646037355,689.0006104,0.01646672934,689.0006104,0.01356850658,689.0006104,0.003799652215,
687.9911499,-3.654944885E-005,687.9911499,0.05866728351,687.9911499,0.03243792057,687.9911499,0.01582762785,687.9911499,0.01634081267,687.9911499,0.004811733961,
687.017334,0.0005678432644,687.017334,0.05866337195,687.017334,0.03429767862,687.017334,0.01860625297,687.017334,0.01415205654,687.017334,0.003328012535,
686.0071411,-0.00119191315,686.0071411,0.05679562315,686.0071411,0.03565749153,686.0071411,0.01929984614,686.0071411,0.01657896861,686.0071411,0.003252502764,
684.9967041,-0.0003296620853,684.9967041,0.06181281805,684.9967041,0.03773478791,684.9967041,0.01932144165,684.9967041,0.01657071151,684.9967041,0.003566182451,
683.9859619,0.0004562986142,683.9859619,0.05838233605,683.9859619,0.03716465831,683.9859619,0.02168123983,683.9859619,0.01572224125,683.9859619,0.004081847146,
683.0109253,-0.000198241265,683.0109253,0.05999275669,683.0109253,0.03640305996,683.0109253,0.0191778671,683.0109253,0.01922042482,683.0109253,0.003894428257,
681.9994507,0.0007105554105,681.9994507,0.0593588911,681.9994507,0.03651094064,681.9994507,0.0225147251,681.9994507,0.01957626641,681.9994507,0.004224830307,
680.9877319,-0.0009077516734,680.9877319,0.06092499197,680.9877319,0.03889796138,680.9877319,0.0213656798,680.9877319,0.01712922938,680.9877319,0.003596041119,
680.0118408,0.001004189602,680.0118408,0.06088010967,680.0118408,0.03996801004,680.0118408,0.02146431245,680.0118408,0.01824278198,680.0118408,0.005308257416,
678.9994507,-0.0001261498837,678.9994507,0.06337165833,678.9994507,0.03829028457,678.9994507,0.02118225768,678.9994507,0.01793321595,678.9994507,0.003957223147,
677.9866943,0.000101251826,677.9866943,0.06126371399,677.9866943,0.04218396172,677.9866943,0.02279295586,677.9866943,0.01962793805,677.9866943,0.004537330009,
677.0098877,0.0003450934892,677.0098877,0.0656267181,677.0098877,0.03951329365,677.0098877,0.0247666724,677.0098877,0.02082939073,677.0098877,0.004408600274,
675.996582,-0.0007197062951,675.996582,0.06618770212,675.996582,0.04264579341,675.996582,0.02712854929,675.996582,0.02269821987,675.996582,0.004277242348,
674.9829102,0.001132588834,674.9829102,0.0671121031,674.9829102,0.0438574627,674.9829102,0.02710904181,674.9829102,0.02599516883,674.9829102,0.005061378237,
674.005127,0.0005375958863,674.005127,0.07042604685,674.005127,0.04480576888,674.005127,0.02758313343,674.005127,0.02580986544,674.005127,0.00501159532,
672.9909058,0.0003625289537,672.9909058,0.06740942597,672.9909058,0.0471845232,672.9909058,0.02767769992,672.9909058,0.02475609444,672.9909058,0.00432079751,
672.0125122,8.038336819E-005,672.0125122,0.06790392101,672.0125122,0.0450335592,672.0125122,0.03238978237,672.0125122,0.02532842755,672.0125122,0.00498883985,
670.9976196,0.0001539193472,670.9976196,0.06858048588,670.9976196,0.0474970378,670.9976196,0.03152136132,670.9976196,0.02747780643,670.9976196,0.004231312778,
669.9823608,-0.001135890954,669.9823608,0.07282084972,669.9823608,0.04888277501,669.9823608,0.03128138185,669.9823608,0.02779309452,669.9823608,0.003798738122,
669.0031738,-1.278748005E-005,669.0031738,0.07425675541,669.0031738,0.0517623201,669.0031738,0.03592562675,669.0031738,0.03050119616,669.0031738,0.004506700207,
667.9873047,-0.0007777977153,667.9873047,0.07507790625,667.9873047,0.0506297797,667.9873047,0.03885798901,667.9873047,0.02964316681,667.9873047,0.004803201184,
667.0074463,0.0005088018952,667.0074463,0.0784431994,667.0074463,0.05325441808,667.0074463,0.04050778598,667.0074463,0.03385585546,667.0074463,0.005510916468,
665.9910278,0.001123920432,665.9910278,0.08012277633,665.9910278,0.05698725581,665.9910278,0.03976042196,665.9910278,0.03802367672,665.9910278,0.005205181893,
665.010498,2.609383955E-005,665.010498,0.07980681956,665.010498,0.05639840662,665.010498,0.04348652065,665.010498,0.0392289646,665.010498,0.003992699552,
663.9934082,0.0003810791532,663.9934082,0.07976252586,663.9934082,0.05738929659,663.9934082,0.04328276217,663.9934082,0.03772583604,663.9934082,0.004970693961,
663.0124512,9.998311725E-005,663.0124512,0.08378323913,663.0124512,0.06032135338,663.0124512,0.04689904675,663.0124512,0.04080558196,663.0124512,0.00529313786,
661.994751,0.000267173571,661.994751,0.08682157844,661.994751,0.06443112344,661.994751,0.05112290382,661.994751,0.0462086685,661.994751,0.005247101188,
661.0130615,-7.827211084E-005,661.0130615,0.08954060078,661.0130615,0.06563258916,661.0130615,0.05056960136,661.0130615,0.04702130705,661.0130615,0.003884450765,
659.9946899,0.0002931021736,659.9946899,0.0906772092,659.9946899,0.0692665875,659.9946899,0.05269810557,659.9946899,0.04899009317,659.9946899,0.005089428276,
659.0125122,-0.0001601528347,659.0125122,0.0940811038,659.0125122,0.07133512199,659.0125122,0.05485239252,659.0125122,0.04834846407,659.0125122,0.004779776093,
657.9935913,2.609383955E-005,657.9935913,0.09550169855,657.9935913,0.06938197464,657.9935913,0.056014359,657.9935913,0.05044811219,657.9935913,0.00482455967,
657.0107422,8.022802649E-005,657.0107422,0.094931297,657.0107422,0.0714558512,657.0107422,0.06128556281,657.0107422,0.05380842835,657.0107422,0.00535036996,
655.991272,-0.0008481792174,655.991272,0.09692573547,655.991272,0.0746242702,655.991272,0.06432736665,655.991272,0.05458208919,655.991272,0.005228813272,
655.0078125,-0.001068551443,655.0078125,0.09711814672,655.0078125,0.07825609297,655.0078125,0.06287141144,655.0078125,0.05456750095,655.0078125,0.005929271691,
653.9876709,0.0003963655618,653.9876709,0.1025458723,653.9876709,0.07654227316,653.9876709,0.06484426558,653.9876709,0.05373524129,653.9876709,0.005421658512,
653.0036621,-4.571221507E-005,653.0036621,0.1010143384,653.0036621,0.07989212871,653.0036621,0.06377135217,653.0036621,0.06015274301,653.0036621,0.005082120653,
651.9829102,-0.0006678618956,651.9829102,0.1012171358,651.9829102,0.07827565074,651.9829102,0.06600513309,651.9829102,0.05706669018,651.9829102,0.005205837078,
650.998291,0.0006066469941,650.998291,0.1029592976,650.998291,0.08022753894,650.998291,0.06776671112,650.998291,0.06027561054,650.998291,0.005878050812,
650.0134277,0.0001541006204,650.0134277,0.1050848216,650.0134277,0.08141200244,650.0134277,0.0691876784,650.0134277,0.06094235554,650.0134277,0.005292509217,
648.9918213,-0.0003039501898,648.9918213,0.1030962095,648.9918213,0.08326212317,648.9918213,0.07043606043,648.9918213,0.05884924904,648.9918213,0.005387611222,
648.0063477,-0.0001972063037,648.0063477,0.1079940647,648.0063477,0.08069436997,648.0063477,0.06916312128,648.0063477,0.05983749405,648.0063477,0.006446227897,
646.9840698,-0.001005333732,646.9840698,0.1015046537,646.9840698,0.0788815096,646.9840698,0.06760407984,646.9840698,0.06011198089,646.9840698,0.005713093095,
645.9981079,0.0002349269198,645.9981079,0.1048309803,645.9981079,0.08163695782,645.9981079,0.06704642624,645.9981079,0.05902927369,645.9981079,0.006516119931,
645.0117188,-0.001190364244,645.0117188,0.1018771231,645.0117188,0.07899442315,645.0117188,0.0639558062,645.0117188,0.05985668674,645.0117188,0.003954819869,
643.9885864,0.0002145441249,643.9885864,0.1005343348,643.9885864,0.07870581746,643.9885864,0.06556086987,643.9885864,0.05926702172,643.9885864,0.005681646056,
643.001709,-3.106315205E-007,643.001709,0.1044747382,643.001709,0.08078420907,643.001709,0.0682964474,643.001709,0.05719893426,643.001709,0.00514081819,
642.0144653,0.0006874279352,642.0144653,0.1029269174,642.0144653,0.07640162855,642.0144653,0.0670048669,642.0144653,0.05858805776,642.0144653,0.005548696034,
640.9904785,-0.0002874461934,640.9904785,0.1002393439,640.9904785,0.07608056813,640.9904785,0.06480931491,640.9904785,0.05878140032,640.9904785,0.006158370525,
640.0026855,0.0003040076408,640.0026855,0.1009980068,640.0026855,0.07612451911,640.0026855,0.06513435394,640.0026855,0.05911317468,640.0026855,0.005212203134,
639.0146484,4.610535689E-005,639.0146484,0.09906712919,639.0146484,0.07765841484,639.0146484,0.06301363558,639.0146484,0.05652425438,639.0146484,0.005246524699,
637.9898071,0.0009750792524,637.9898071,0.101392597,637.9898071,0.07710635662,637.9898071,0.06430770457,637.9898071,0.05516751111,637.9898071,0.006564578041,
637.0011597,-5.275239891E-005,637.0011597,0.09919770807,637.0011597,0.07459037006,637.0011597,0.06062323228,637.0011597,0.05547314882,637.0011597,0.005670526065,
636.0122681,-0.0005739784101,636.0122681,0.09869920462,636.0122681,0.0727827996,636.0122681,0.06001519412,636.0122681,0.05375885591,636.0122681,0.004891939461,
634.9864502,4.13418602E-005,634.9864502,0.09757322818,634.9864502,0.07595635206,634.9864502,0.06157009304,634.9864502,0.05625503138,634.9864502,0.005698982161,
633.9970093,-0.0005811651354,633.9970093,0.09971046448,633.9970093,0.07378682494,633.9970093,0.05839494988,633.9970093,0.053010609,633.9970093,0.005438669585,
633.0072632,0.0003548862587,633.0072632,0.09612187743,633.0072632,0.07155933976,633.0072632,0.0585703738,633.0072632,0.05227235332,633.0072632,0.005405643489,
632.0172729,-0.000627798494,632.0172729,0.09656013548,632.0172729,0.07056129724,632.0172729,0.05631043017,632.0172729,0.05189681053,632.0172729,0.005013061687,
630.9902954,-0.0002570233773,630.9902954,0.09506721795,630.9902954,0.07171219587,630.9902954,0.05894011259,630.9902954,0.05115324631,630.9902954,0.005075049587,
629.9996948,0.000440595526,629.9996948,0.09644931555,629.9996948,0.07274796814,629.9996948,0.05648235977,629.9996948,0.04953601584,629.9996948,0.005189096555,
629.0088501,-0.0002513835207,629.0088501,0.09565415233,629.0088501,0.07053239644,629.0088501,0.05620329082,629.0088501,0.05125401914,629.0088501,0.005283049773,
628.0177002,0.0004111602029,628.0177002,0.0961394161,628.0177002,0.0695426017,628.0177002,0.05525096133,628.0177002,0.05111157522,628.0177002,0.00478655519,
626.989624,0.000111349822,626.989624,0.09283979982,626.989624,0.06869573146,626.989624,0.05490032956,626.989624,0.04900507256,626.989624,0.005328042433,
625.9978638,0.0001835185103,625.9978638,0.09478125721,625.9978638,0.06985892355,625.9978638,0.05399763212,625.9978638,0.04777195305,625.9978638,0.00525763398,
625.0059204,0.0004553139152,625.0059204,0.09209681302,625.0059204,0.07183059305,625.0059204,0.05433686078,625.0059204,0.05151100829,625.0059204,0.005625314545,
624.0137329,-0.0001664148876,624.0137329,0.09188831598,624.0137329,0.06904554367,624.0137329,0.05705576763,624.0137329,0.0474438183,624.0137329,0.004856259096,
622.984375,-0.0001908411941,622.984375,0.09039514512,622.984375,0.06684312224,622.984375,0.05451540649,622.984375,0.04662260786,622.984375,0.004658824299,
621.9915771,0.0002426451829,621.9915771,0.09183675796,621.9915771,0.06747978181,621.9915771,0.05508586764,621.9915771,0.04707531258,621.9915771,0.005572031718,
620.9985352,0.0001073105959,620.9985352,0.09318174422,620.9985352,0.06691601127,620.9985352,0.05760575086,620.9985352,0.04838984087,620.9985352,0.005483206362,
620.005127,-6.730346627E-007,620.005127,0.09345336258,620.005127,0.06934376806,620.005127,0.05510432273,620.005127,0.04810831696,620.005127,0.005123268347,
619.0115356,-0.0001712278026,619.0115356,0.09545941651,619.0115356,0.06734377146,619.0115356,0.05452720448,619.0115356,0.04817191139,619.0115356,0.005220875144,
618.0177002,-0.0002715106821,618.0177002,0.09301008284,618.0177002,0.0698902458,618.0177002,0.0558963418,618.0177002,0.05070340261,618.0177002,0.005195960402,
616.9866333,0.0007784152403,616.9866333,0.09487680346,616.9866333,0.07155223191,616.9866333,0.05592817068,616.9866333,0.04986567423,616.9866333,0.005347696599,
615.9921875,0.0008246810758,615.9921875,0.09232212603,615.9921875,0.06939172745,615.9921875,0.05656633154,615.9921875,0.05061308295,615.9921875,0.006392082665,
614.9974976,0.0002341499203,614.9974976,0.09461723268,614.9974976,0.06954017282,614.9974976,0.05834760144,614.9974976,0.05112587288,614.9974976,0.006133927498,
614.0025024,0.0003697054053,614.0025024,0.09432008862,614.0025024,0.07212728262,614.0025024,0.05859967321,614.0025024,0.05350887775,614.0025024,0.005584669765,
613.0072021,0.0004741013399,613.0072021,0.09678004682,613.0072021,0.07290776074,613.0072021,0.0593665801,613.0072021,0.05363310128,613.0072021,0.005809468217,
612.0117798,-0.0001767651847,612.0117798,0.09644505382,612.0117798,0.07179113477,612.0117798,0.05907183141,612.0117798,0.05449245498,612.0117798,0.005538366269,
611.0159302,-0.0005018459633,611.0159302,0.09705878049,611.0159302,0.07420921326,611.0159302,0.06056198105,611.0159302,0.05285182968,611.0159302,0.005756162573,
609.9829712,-0.0004963644315,609.9829712,0.09908556193,609.9829712,0.07402708381,609.9829712,0.06113776192,609.9829712,0.05445894226,609.9829712,0.005370392464,
608.9866333,-0.0004923308152,608.9866333,0.09948382527,608.9866333,0.07499584556,608.9866333,0.06250569224,608.9866333,0.05671662092,608.9866333,0.005292299204,
607.9899902,-5.704892828E-005,607.9899902,0.100205794,607.9899902,0.07532423735,607.9899902,0.06419899315,607.9899902,0.05563830584,607.9899902,0.006103079766,
606.993103,-2.17441584E-006,606.993103,0.1021058634,606.993103,0.0778202489,606.993103,0.0649497062,606.993103,0.05726874992,606.993103,0.006099220831,
605.9959717,-0.0001294623216,605.9959717,0.1037614867,605.9959717,0.07944981754,605.9959717,0.06741199642,605.9959717,0.05766522512,605.9959717,0.005876581185,
604.9985962,-9.814849909E-005,604.9985962,0.1044018492,604.9985962,0.07962901145,604.9985962,0.067249313,604.9985962,0.0595062077,604.9985962,0.006185572129,
604.0009155,-0.0002906539012,604.0009155,0.1061154082,604.0009155,0.08144550025,604.0009155,0.07012662292,604.0009155,0.06036959961,604.0009155,0.006361715496,
603.0029297,-8.17919572E-005,603.0029297,0.1084511206,603.0029297,0.0836950615,603.0029297,0.07007618248,603.0029297,0.06305667013,603.0029297,0.00620187819,
602.0047607,5.117957335E-005,602.0047607,0.1094567925,602.0047607,0.08500470966,602.0047607,0.07137493044,602.0047607,0.06492382288,602.0047607,0.006620742381,
601.0062256,0.0005072728381,601.0062256,0.1121194214,601.0062256,0.08480392396,601.0062256,0.07394740731,601.0062256,0.06510831416,601.0062256,0.00657695625,
600.0075073,0.0005225636996,600.0075073,0.1119781956,600.0075073,0.08869434148,600.0075073,0.07677213848,600.0075073,0.06806778908,600.0075073,0.006945518777,
599.0085449,6.976829172E-005,599.0085449,0.1138654798,599.0085449,0.08905973285,599.0085449,0.07866377383,599.0085449,0.06931693107,599.0085449,0.006763433106,
598.0092163,0.0002325700334,598.0092163,0.117972523,598.0092163,0.09255757928,598.0092163,0.08212324977,598.0092163,0.07078509033,598.0092163,0.007252192125,
597.0097046,0.0005819697981,597.0097046,0.1190198213,597.0097046,0.09442775697,597.0097046,0.08186556399,597.0097046,0.07411144674,597.0097046,0.007337351795,
596.0098877,-0.0006549903192,596.0098877,0.1225823388,596.0098877,0.09575163573,596.0098877,0.08387830853,596.0098877,0.0745312348,596.0098877,0.006769348867,
595.0098877,0.0001969333243,595.0098877,0.1235304773,595.0098877,0.09966760874,595.0098877,0.08778163046,595.0098877,0.07999771088,595.0098877,0.00766627444,
594.0095825,4.52510285E-005,594.0095825,0.1262359768,594.0095825,0.1011244357,594.0095825,0.09134835005,594.0095825,0.08071802557,594.0095825,0.007433535066,
593.0089722,-0.0005469883326,593.0089722,0.1274988353,593.0089722,0.1026282907,593.0089722,0.09360609204,593.0089722,0.08372243494,593.0089722,0.008087688126,
592.0081787,0.0004605224822,592.0081787,0.1324318945,592.0081787,0.1041653454,592.0081787,0.09690570086,592.0081787,0.08385488391,592.0081787,0.007821643725,
591.0070801,-0.0007415172877,591.0070801,0.1340045035,591.0070801,0.1075534075,591.0070801,0.1002716869,591.0070801,0.08776604384,591.0070801,0.008036897518,
590.0056763,-0.0004172366462,590.0056763,0.1391241997,590.0056763,0.1094923988,590.0056763,0.1024344414,590.0056763,0.08973830193,590.0056763,0.008810632862,
589.0040894,-7.061118231E-005,589.0040894,0.1418146938,589.0040894,0.1130372435,589.0040894,0.1056446955,589.0040894,0.09464636445,589.0040894,0.00905071944,
588.0021973,-1.314987276E-005,588.0021973,0.1430831254,588.0021973,0.1148383245,588.0021973,0.1070900112,588.0021973,0.09602496028,588.0021973,0.008891236968,
587.000061,-2.821478847E-005,587.000061,0.1472991854,587.000061,0.1200996116,587.000061,0.1108750701,587.000061,0.09885148704,587.000061,0.009627697058,
585.9976807,0.0005764228408,585.9976807,0.147971198,585.9976807,0.1210349873,585.9976807,0.1155851856,585.9976807,0.1031346098,585.9976807,0.01020104252,
584.9950562,0.0002785964753,584.9950562,0.1517353356,584.9950562,0.1269806474,584.9950562,0.1199312732,584.9950562,0.105060786,584.9950562,0.01073327474,
583.9921875,-9.338653035E-005,583.9921875,0.1539906263,583.9921875,0.1292112321,583.9921875,0.1220302507,583.9921875,0.1097558811,583.9921875,0.01090495475,
582.9889526,-0.0006836277898,582.9889526,0.157981649,582.9889526,0.1340070069,582.9889526,0.1258253902,582.9889526,0.1113844812,582.9889526,0.01114514004,
581.9855957,0.0005206976202,581.9855957,0.1603312492,581.9855957,0.1348679215,581.9855957,0.1297732294,581.9855957,0.1143850833,581.9855957,0.0117765842,
580.9818726,0.0002203454787,580.9818726,0.1667174846,580.9818726,0.1371421963,580.9818726,0.1330302507,580.9818726,0.1166719347,580.9818726,0.01295120176,
580.0151367,-0.0004031162534,580.0151367,0.1680527478,580.0151367,0.141203478,580.0151367,0.1372042149,580.0151367,0.1233536825,580.0151367,0.01281864755,
579.0109863,-0.000186080244,579.0109863,0.1710853279,579.0109863,0.1437502205,579.0109863,0.1376289278,579.0109863,0.1247569546,579.0109863,0.01344591007,
578.0065308,1.232189607E-005,578.0065308,0.1753658652,578.0065308,0.1502520591,578.0065308,0.1417670101,578.0065308,0.1263816655,578.0065308,0.01400279999,
577.0018311,0.0001405317744,577.0018311,0.1773085296,577.0018311,0.1545479149,577.0018311,0.1477610767,577.0018311,0.1315842718,577.0018311,0.01437964849,
575.9968872,-4.483218436E-005,575.9968872,0.1802296042,575.9968872,0.1553577632,575.9968872,0.1498306394,575.9968872,0.1336038411,575.9968872,0.01511411835,
574.9917603,-0.0001541494712,574.9917603,0.1834062636,574.9917603,0.157034874,574.9917603,0.1525192112,574.9917603,0.1356363744,574.9917603,0.0154319806,
573.9862061,0.0003139549226,573.9862061,0.1876410991,573.9862061,0.1609152555,573.9862061,0.1562545747,573.9862061,0.1392923445,573.9862061,0.01549297851,
573.0177612,-0.0001473696902,573.0177612,0.190208748,573.0177612,0.1618266851,573.0177612,0.1589349955,573.0177612,0.1427436471,573.0177612,0.01623927802,
572.0118408,0.0002827668213,572.0118408,0.1912706494,572.0118408,0.1646295935,572.0118408,0.1619349569,572.0118408,0.1442208737,572.0118408,0.01668935083,
571.0056763,0.0005396174965,571.0056763,0.192831099,571.0056763,0.1653606892,571.0056763,0.1638132632,571.0056763,0.1449730247,571.0056763,0.01667326503,
569.9992065,-0.000207245379,569.9992065,0.1967615187,569.9992065,0.1691645533,569.9992065,0.1648479253,569.9992065,0.1479526013,569.9992065,0.0165306963,
568.9925537,-9.421470168E-005,568.9925537,0.1961513311,568.9925537,0.168841809,568.9925537,0.166953668,568.9925537,0.1490864456,568.9925537,0.0167824626,
567.9855957,-0.0003326108272,567.9855957,0.1970284581,567.9855957,0.1712935865,567.9855957,0.1694758832,567.9855957,0.1503626257,567.9855957,0.01651262678,
567.0157471,0.0002120837453,567.0157471,0.2009363919,567.0157471,0.1718141288,567.0157471,0.170859009,567.0157471,0.1524070501,567.0157471,0.01710340753,
566.0082397,-0.0001924971584,566.0082397,0.2013037503,566.0082397,0.1721999347,566.0082397,0.1694431901,566.0082397,0.1523688138,566.0082397,0.01639269106,
565.0006104,-0.0001065853357,565.0006104,0.2018838525,565.0006104,0.1760987043,565.0006104,0.1705320776,565.0006104,0.1540169418,565.0006104,0.0166482497,
563.9926147,-0.0003356112866,563.9926147,0.2034234405,563.9926147,0.1754774451,563.9926147,0.1737285703,563.9926147,0.1543565989,563.9926147,0.01633680798,
562.9844971,-5.373594468E-005,562.9844971,0.2052563429,562.9844971,0.1782812327,562.9844971,0.1755069494,562.9844971,0.155825004,562.9844971,0.01645524986,
562.0134277,0.0004262403527,562.0134277,0.2088974565,562.0134277,0.1794359237,562.0134277,0.177648589,562.0134277,0.1579035074,562.0134277,0.01623847149,
561.0047607,-2.381502554E-006,561.0047607,0.2080276906,561.0047607,0.1798475981,561.0047607,0.178512916,561.0047607,0.1589051336,561.0047607,0.01600122824,
559.9957886,-1.780918137E-005,559.9957886,0.2088018656,559.9957886,0.1813599318,559.9957886,0.1821459532,559.9957886,0.1611323357,559.9957886,0.01617376693,
558.9866943,-0.0001021340213,558.9866943,0.2105954438,558.9866943,0.1835805625,558.9866943,0.1836685389,558.9866943,0.1613878161,558.9866943,0.01622613706,
558.0146484,0.0003928159713,558.0146484,0.2117427438,558.0146484,0.1838910878,558.0146484,0.1847213656,558.0146484,0.1641053408,558.0146484,0.0167206917,
557.0050659,-0.0001725733455,557.0050659,0.2136746496,557.0050659,0.1873910725,557.0050659,0.1866170615,557.0050659,0.1663929969,557.0050659,0.01588924602,
555.9951172,5.79366606E-005,555.9951172,0.215181008,555.9951172,0.187141344,555.9951172,0.1887717992,555.9951172,0.1665286571,555.9951172,0.0159618035,
554.9849854,-0.0003049849183,554.9849854,0.2172764391,554.9849854,0.1890013367,554.9849854,0.1889874935,554.9849854,0.1700853556,554.9849854,0.01530432515,
554.012085,-0.0006714286865,554.012085,0.2186084092,554.012085,0.1912634075,554.012085,0.1931333095,554.012085,0.1703518629,554.012085,0.01566926204,
553.0014648,-5.730775229E-005,553.0014648,0.2229333222,553.0014648,0.1948146224,553.0014648,0.1939589083,553.0014648,0.1729196906,553.0014648,0.01626811177,
551.9905396,0.0001062490119,551.9905396,0.2239954919,551.9905396,0.1952924877,551.9905396,0.1975184679,551.9905396,0.1747039258,551.9905396,0.01577385888,
551.0169067,-1.967329126E-006,551.0169067,0.2264619917,551.0169067,0.1979189068,551.0169067,0.199789241,551.0169067,0.1773129702,551.0169067,0.01619354263,
550.0056763,0.0002899678657,550.0056763,0.22986494,550.0056763,0.201586172,550.0056763,0.2023639977,550.0056763,0.1798529327,550.0056763,0.01613268815,
548.9940186,0.0002382421226,548.9940186,0.2313252836,548.9940186,0.202740401,548.9940186,0.2041764408,548.9940186,0.1814569086,548.9940186,0.01619203947,
547.9821777,0.000274400285,547.9821777,0.232516557,547.9821777,0.2070833892,547.9821777,0.2069000304,547.9821777,0.1836765707,547.9821777,0.01662501134,
547.0076294,0.0003279955126,547.0076294,0.2348822355,547.0076294,0.2076328099,547.0076294,0.2081652582,547.0076294,0.1854911596,547.0076294,0.01711178012,
545.9954224,-0.0001530626469,545.9954224,0.2380462736,545.9954224,0.2085454762,545.9954224,0.2096900046,545.9954224,0.1872872263,545.9954224,0.01698317379,
544.9828491,-0.0001094320833,544.9828491,0.2382984757,544.9828491,0.2099461257,544.9828491,0.2110488266,544.9828491,0.1883322001,544.9828491,0.01669128798,
544.0076294,-6.672889867E-005,544.0076294,0.2392665148,544.0076294,0.2114812434,544.0076294,0.2122472972,544.0076294,0.1899205595,544.0076294,0.01703588292,
542.9946289,4.271394937E-005,542.9946289,0.2404464781,542.9946289,0.2117397636,542.9946289,0.2145586461,542.9946289,0.1909387112,542.9946289,0.01719843782,
541.9813843,0.0002116693649,541.9813843,0.2421710789,541.9813843,0.2147150189,541.9813843,0.2150294781,541.9813843,0.1925568581,541.9813843,0.01729807071,
541.0054321,-0.0002410350135,541.0054321,0.2432096601,541.0054321,0.2126509994,541.0054321,0.2142206877,541.0054321,0.1915733665,541.0054321,0.01756192558,
539.9917603,-2.122597471E-005,539.9917603,0.2426813841,539.9917603,0.2134517878,539.9917603,0.2155675888,539.9917603,0.1922193915,539.9917603,0.01774274372,
539.0153809,-0.0002132480149,539.0153809,0.2440703809,539.0153809,0.2142078876,539.0153809,0.2167110592,539.0153809,0.1926670074,539.0153809,0.01777553558,
538.0012207,9.200847853E-005,538.0012207,0.2439571917,538.0012207,0.2155632079,538.0012207,0.2170483619,538.0012207,0.1935608834,538.0012207,0.01748204045,
536.9867554,6.453851529E-005,536.9867554,0.2436015755,536.9867554,0.2151774764,536.9867554,0.2175699174,536.9867554,0.1930606216,536.9867554,0.01772254705,
536.0097046,1.102756232E-005,536.0097046,0.2454406917,536.0097046,0.2150050253,536.0097046,0.2169644386,536.0097046,0.1941977739,536.0097046,0.01797568053,
534.9949341,-9.524991765E-005,534.9949341,0.2435525358,534.9949341,0.2151618451,534.9949341,0.2171457857,534.9949341,0.1949523985,534.9949341,0.01785892621,
534.017395,1.532476381E-005,534.017395,0.2446158975,534.017395,0.2162079513,534.017395,0.2180941552,534.017395,0.1946313828,534.017395,0.01796615683,
533.0020752,-0.0001832339913,533.0020752,0.24556835,533.0020752,0.2160187811,533.0020752,0.2172805369,533.0020752,0.1939652264,533.0020752,0.01814190857,
531.9865112,-0.0001598940726,531.9865112,0.2446943372,531.9865112,0.2155240923,531.9865112,0.2165917009,531.9865112,0.1944567263,531.9865112,0.01766584627,
531.0083618,-0.0002046062582,531.0083618,0.2443283796,531.0083618,0.2156486362,531.0083618,0.2170170397,531.0083618,0.1950138509,531.0083618,0.01758634672,
529.9923096,-5.855011477E-005,529.9923096,0.244842276,529.9923096,0.2151725888,529.9923096,0.2178002894,529.9923096,0.1955169737,529.9923096,0.01744892076,
529.0136719,0.0001964412659,529.0136719,0.245484516,529.0136719,0.2166481465,529.0136719,0.2175881118,529.0136719,0.1947333515,529.0136719,0.01748449355,
527.9972534,-0.0001905306999,527.9972534,0.2453077435,527.9972534,0.2159070522,527.9972534,0.2165026218,527.9972534,0.1943110526,527.9972534,0.0176327657,
527.0181274,0.0001682914008,527.0181274,0.244794935,527.0181274,0.2159851491,527.0181274,0.2165034413,527.0181274,0.1938486397,527.0181274,0.01693092845,
526.0012207,0.0002946304739,526.0012207,0.2440630347,526.0012207,0.2154913098,526.0012207,0.2168619335,526.0012207,0.1943598986,526.0012207,0.01751933992,
524.9840088,-0.0001064818207,524.9840088,0.2448538393,524.9840088,0.2147003263,524.9840088,0.2174472809,524.9840088,0.1940353066,524.9840088,0.01727355644,
524.0043945,-0.0002346187975,524.0043945,0.2434632927,524.0043945,0.2151878923,524.0043945,0.2159462571,524.0043945,0.1951455921,524.0043945,0.01693308167,
522.9866943,-0.00028072024,522.9866943,0.2453048825,522.9866943,0.2160908133,522.9866943,0.215310052,522.9866943,0.1931777298,522.9866943,0.01653169282,
522.0065918,0.0001228204055,522.0065918,0.2458701879,522.0065918,0.2143846154,522.0065918,0.2168473154,522.0065918,0.1929656267,522.0065918,0.01665059105,
520.9885254,-0.000195809087,520.9885254,0.2438529283,520.9885254,0.2144360542,520.9885254,0.2150648683,520.9885254,0.1941163689,520.9885254,0.01634909213,
520.0079346,-0.0003637008485,520.0079346,0.2432431579,520.0079346,0.2133841664,520.0079346,0.215423286,520.0079346,0.1943689585,520.0079346,0.0158044342,
518.9894409,-0.0004886591341,518.9894409,0.2425281107,518.9894409,0.2136266828,518.9894409,0.2161563039,518.9894409,0.1926596314,518.9894409,0.01566641778,
518.0084229,8.260997856E-005,518.0084229,0.2429522872,518.0084229,0.212794587,518.0084229,0.2151044458,518.0084229,0.1917960346,518.0084229,0.01653591357,
516.9894409,-0.0004513202293,516.9894409,0.2421589643,516.9894409,0.2124094516,516.9894409,0.2133785486,516.9894409,0.1911128163,516.9894409,0.01560241636,
516.0079346,2.055394543E-005,516.0079346,0.2417334318,516.0079346,0.2110212147,516.0079346,0.2137326598,516.0079346,0.1913189888,516.0079346,0.01554320008,
514.9885864,-1.708470563E-006,514.9885864,0.2410550117,514.9885864,0.2115558982,514.9885864,0.2139160484,514.9885864,0.1909678131,514.9885864,0.01559769362,
514.0067139,-0.0001240796119,514.0067139,0.2408071011,514.0067139,0.2106611133,514.0067139,0.2128704488,514.0067139,0.1891000718,514.0067139,0.01481419243,
512.9868774,-2.500512528E-005,512.9868774,0.2410085201,512.9868774,0.2097451389,512.9868774,0.2117119431,512.9868774,0.1893014908,512.9868774,0.01520997472,
512.0045776,6.383949221E-005,512.0045776,0.2409012616,512.0045776,0.2092393488,512.0045776,0.2105398327,512.0045776,0.1886752099,512.0045776,0.01495654695,
510.9842529,2.588597567E-007,510.9842529,0.2385635078,510.9842529,0.2085219175,510.9842529,0.2107195556,510.9842529,0.1881777048,510.9842529,0.01473531965,
510.0015564,6.399482663E-005,510.0015564,0.2377031893,510.0015564,0.2102385014,510.0015564,0.2101807445,510.0015564,0.1885087341,510.0015564,0.01505973842,
509.0186157,-0.0001969993027,509.0186157,0.2383428365,509.0186157,0.2072724253,509.0186157,0.2084997892,509.0186157,0.1872385442,509.0186157,0.01476338506,
507.9976807,-0.000130497443,507.9976807,0.2384833843,507.9976807,0.2077174634,507.9976807,0.2084154487,507.9976807,0.1861496866,507.9976807,0.01452999748,
507.0143433,-0.0004013576254,507.0143433,0.2368697226,507.0143433,0.2068549693,507.0143433,0.2063790113,507.0143433,0.1851566732,507.0143433,0.01444668137,
505.9929199,4.248095138E-005,505.9929199,0.2369911671,505.9929199,0.2068722695,505.9929199,0.2090362161,505.9929199,0.1846433729,505.9929199,0.01482013799,
505.0091553,0.0002172116947,505.0091553,0.2370274961,505.0091553,0.2066665739,505.0091553,0.2057085484,505.0091553,0.1847104281,505.0091553,0.01437670551,
503.9873352,0.0001939032954,503.9873352,0.2344154567,503.9873352,0.2057722807,503.9873352,0.2050581127,503.9873352,0.1839358062,503.9873352,0.01451714989,
503.0031433,0.0003154574079,503.0031433,0.2344241142,503.0031433,0.2050554454,503.0031433,0.2050487697,503.0031433,0.1834985614,503.0031433,0.01478649862,
502.0187378,1.837907689E-006,502.0187378,0.2332384586,502.0187378,0.2053411603,502.0187378,0.2035363913,502.0187378,0.1836431772,502.0187378,0.01453302242,
500.9962463,4.607726623E-006,500.9962463,0.2347601652,500.9962463,0.2048858851,500.9962463,0.2054073662,500.9962463,0.1838611215,500.9962463,0.0142546026,
500.0114136,0.0003252754395,500.0114136,0.2345982045,500.0114136,0.2040096223,500.0114136,0.2047172636,500.0114136,0.1824189872,500.0114136,0.01440030616,
498.9885254,-0.0001570994064,498.9885254,0.2327678651,498.9885254,0.2028506994,498.9885254,0.2049936503,498.9885254,0.1814160198,498.9885254,0.01429625414,
498.0032654,1.910426545E-005,498.0032654,0.2323447764,498.0032654,0.203062892,498.0032654,0.2044383585,498.0032654,0.1823827326,498.0032654,0.01394262537,
497.0178833,-0.0003583210346,497.0178833,0.2318025231,497.0178833,0.2032944858,497.0178833,0.2028951347,497.0178833,0.1814534515,497.0178833,0.01409381256,
495.9942932,-3.991432823E-005,495.9942932,0.2330705822,495.9942932,0.2036681026,495.9942932,0.2019809037,495.9942932,0.1819738895,495.9942932,0.01400108915,
495.0084534,7.259032282E-005,495.0084534,0.233610481,495.0084534,0.2030720562,495.0084534,0.2034890652,495.0084534,0.1825128496,495.0084534,0.0142012937,
493.9845276,-0.0003411465732,493.9845276,0.2332918793,493.9845276,0.2018147707,493.9845276,0.2029349059,493.9845276,0.1812729239,493.9845276,0.01385097671,
492.9981995,3.427437332E-005,492.9981995,0.2323181182,492.9981995,0.2019800842,492.9981995,0.204930082,492.9981995,0.1818636656,492.9981995,0.01404397283,
492.0117798,0.0001460732019,492.0117798,0.2332950681,492.0117798,0.2033361197,492.0117798,0.203541398,492.0117798,0.1811047345,492.0117798,0.01389748044,
490.9871521,-1.30981025E-005,490.9871521,0.2330200821,490.9871521,0.2025287002,490.9871521,0.203144446,490.9871521,0.1808293164,490.9871521,0.01397288591,
490.0003052,0.0001485849934,490.0003052,0.23339279,490.0003052,0.2019776106,490.0003052,0.2039807588,490.0003052,0.1823030114,490.0003052,0.01404426713,
489.0132446,-9.095377027E-005,489.0132446,0.2333653718,489.0132446,0.202909708,489.0132446,0.2052601278,489.0132446,0.1821294278,489.0132446,0.01385215204,
487.9879761,-2.101889731E-005,487.9879761,0.2339746058,487.9879761,0.205363214,487.9879761,0.2037577331,487.9879761,0.1827507317,487.9879761,0.01417200733,
487.0005493,7.769074E-005,487.0005493,0.2344568074,487.0005493,0.2042571753,487.0005493,0.2040229589,487.0005493,0.1826536357,487.0005493,0.01460462995,
486.0128784,-0.0002812376188,486.0128784,0.2344191819,486.0128784,0.2049390376,486.0128784,0.2045198828,486.0128784,0.1833160818,486.0128784,0.01402362622,
484.9869385,0.0001769666414,484.9869385,0.2349271327,484.9869385,0.2053470463,484.9869385,0.207208097,484.9869385,0.1847907156,484.9869385,0.01415911689,
483.9988708,-0.0004448554246,483.9988708,0.2365876883,483.9988708,0.2062921226,483.9988708,0.2067595273,483.9988708,0.184652999,483.9988708,0.01402017754,
483.0106201,-2.070828123E-005,483.0106201,0.2377575189,483.0106201,0.2072253227,483.0106201,0.2067051232,483.0106201,0.1843498349,483.0106201,0.01463565882,
481.9841003,-3.556586307E-005,481.9841003,0.2391712815,481.9841003,0.208363086,481.9841003,0.2084425092,481.9841003,0.1860902309,481.9841003,0.01433055103,
480.9954529,0.0001248918707,480.9954529,0.2398141176,480.9954529,0.2083698958,480.9954529,0.2106710821,480.9954529,0.1871178448,480.9954529,0.01472605392,
480.0066223,-5.694875654E-006,480.0066223,0.2410426438,480.0066223,0.2096939087,480.0066223,0.2129985988,480.0066223,0.1880791038,480.0066223,0.01474654023,
479.0174866,0.0001783650514,479.0174866,0.242848441,479.0174866,0.2126878351,479.0174866,0.215129137,479.0174866,0.1907637268,479.0174866,0.01507439837,
477.9902649,0.0004696181859,477.9902649,0.2460061312,477.9902649,0.2143826187,477.9902649,0.2171758264,477.9902649,0.1923026592,477.9902649,0.01523986738,
477.0007324,-0.0003619937925,477.0007324,0.2489296794,477.0007324,0.2167867571,477.0007324,0.2193792611,477.0007324,0.195195049,477.0007324,0.01480085403,
476.0110779,0.0001797116856,476.0110779,0.2503621876,476.0110779,0.2195692062,476.0110779,0.221660316,476.0110779,0.1969912499,476.0110779,0.01512215845,
474.9832153,0.0001353529369,474.9832153,0.252740711,474.9832153,0.221102953,474.9832153,0.2246507555,474.9832153,0.2001880556,474.9832153,0.01580478251,
473.993103,0.0002098823607,473.993103,0.2555669844,473.993103,0.2250975519,473.993103,0.2284895927,473.993103,0.2032984495,473.993103,0.01566832326,
473.0028687,4.527691999E-005,473.0028687,0.2583056092,473.0028687,0.2270900011,473.0028687,0.2295024395,473.0028687,0.2062597424,473.0028687,0.01583659649,
472.0124207,-2.334851524E-005,472.0124207,0.2628586888,472.0124207,0.2311875522,472.0124207,0.2342354953,472.0124207,0.2099626958,472.0124207,0.01604914479,
470.9836426,-0.000187787984,470.9836426,0.2650026381,470.9836426,0.2353076786,470.9836426,0.2378764898,470.9836426,0.2128818184,470.9836426,0.01625722833,
469.9928284,-2.070828123E-005,469.9928284,0.2696124017,469.9928284,0.2385843098,469.9928284,0.2421806604,469.9928284,0.214982897,469.9928284,0.01651332714,
469.0018005,-0.0003254717158,469.0018005,0.273976624,469.0018005,0.2423117012,469.0018005,0.2467540652,469.0018005,0.2189407051,469.0018005,0.01659994572,
468.0105591,3.484390982E-005,468.0105591,0.2781413496,468.0105591,0.2460427582,468.0105591,0.2506392002,468.0105591,0.2241475284,468.0105591,0.01641411707,
466.9811096,-0.0002403623512,466.9811096,0.2818870246,466.9811096,0.2486084104,466.9811096,0.2553531826,466.9811096,0.227681309,466.9811096,0.01731943153,
465.989502,-8.909036114E-005,465.989502,0.2876299322,465.989502,0.2543513477,465.989502,0.2600330114,465.989502,0.2316974849,465.989502,0.01758807153,
464.9976501,-0.0001829234971,464.9976501,0.2921209931,464.9976501,0.2575950027,464.9976501,0.266037792,464.9976501,0.2357925624,464.9976501,0.01815756224,
464.0056763,-0.0001918244234,464.0056763,0.2970484495,464.0056763,0.2631643713,464.0056763,0.2702861428,464.0056763,0.2417525798,464.0056763,0.01826575771,
463.0135498,-0.0001077240377,463.0135498,0.3005620837,463.0135498,0.2668351233,463.0135498,0.2756014764,463.0135498,0.2463266701,463.0135498,0.0188564416,
461.9829712,-0.0003301276884,461.9829712,0.3044386506,461.9829712,0.2727855146,461.9829712,0.2833797336,461.9829712,0.2508705556,461.9829712,0.01919131353,
460.990448,-0.0003741498804,460.990448,0.309887737,460.990448,0.278211087,460.990448,0.2893097401,460.990448,0.2560387254,460.990448,0.01963774115,
459.9977112,-0.0001154360725,459.9977112,0.3165117204,459.9977112,0.2846353352,459.9977112,0.2940955162,459.9977112,0.2622177303,459.9977112,0.02035127021,
459.0047607,-6.31054063E-005,459.0047607,0.3227903545,459.0047607,0.2892039716,459.0047607,0.3019167483,459.0047607,0.2660048604,459.0047607,0.02076750249,
458.0116272,0.0002222361218,458.0116272,0.3302739859,458.0116272,0.296148777,458.0116272,0.3086772859,458.0116272,0.2737918496,458.0116272,0.0215747226,
457.0183105,1.628257996E-005,457.0183105,0.3377138674,457.0183105,0.3028818369,457.0183105,0.3162574768,457.0183105,0.2801727355,457.0183105,0.02230869047,
455.9866028,7.186539733E-005,455.9866028,0.3465863168,455.9866028,0.3128206432,455.9866028,0.3232766986,455.9866028,0.2889649272,455.9866028,0.02289355174,
454.9929199,-8.676110156E-005,454.9929199,0.3536443114,454.9929199,0.3207580447,454.9929199,0.3344614506,454.9929199,0.2967723906,454.9929199,0.02359996177,
453.999054,0.0001020544805,453.999054,0.3640439212,453.999054,0.3303358853,453.999054,0.3463311791,453.999054,0.3086379468,453.999054,0.0243267417,
453.0049438,5.824733307E-005,453.0049438,0.3743811846,453.0049438,0.3385341465,453.0049438,0.3557299674,453.0049438,0.317435205,453.0049438,0.02539676055,
452.0107422,0.0001156998042,452.0107422,0.38388744,452.0107422,0.3498929143,452.0107422,0.3667490482,452.0107422,0.3274422288,452.0107422,0.02634241432,
451.0163269,-0.0002262879425,451.0163269,0.3989013135,451.0163269,0.3629249334,451.0163269,0.3832899034,451.0163269,0.336361438,451.0163269,0.02731416933,
449.983429,-0.0003956161963,449.983429,0.4106595814,449.983429,0.3754231632,449.983429,0.3967218399,449.983429,0.3539877236,449.983429,0.02831086889,
448.9886475,-0.0002951550414,448.9886475,0.4254023135,448.9886475,0.3885647058,448.9886475,0.411886096,448.9886475,0.3636173904,448.9886475,0.02936214954,
447.9936523,8.6977725E-006,447.9936523,0.4406684041,447.9936523,0.404173255,447.9936523,0.4298516214,447.9936523,0.3808571994,447.9936523,0.03071574122,
446.9985046,-0.0002293408907,446.9985046,0.4570576549,446.9985046,0.421800077,446.9985046,0.4437805116,446.9985046,0.3953935802,446.9985046,0.03194889054,
446.0031128,2.360864528E-005,446.0031128,0.4745505452,446.0031128,0.4399355352,446.0031128,0.4686208367,446.0031128,0.4172102809,446.0031128,0.03345317394,
445.0075989,-4.038192401E-006,445.0075989,0.4946933389,445.0075989,0.4619618654,445.0075989,0.4920198619,445.0075989,0.4359515309,445.0075989,0.03501358256,
444.0118408,-5.228934242E-006,444.0118408,0.5205150247,444.0118408,0.4843503833,444.0118408,0.5168896914,444.0118408,0.4559011459,444.0118408,0.03671405092,
443.0159912,-7.273347728E-005,443.0159912,0.5405093431,443.0159912,0.5046272874,443.0159912,0.5396353602,443.0159912,0.4779992998,443.0159912,0.03848843277,
441.9815979,-9.188546392E-005,441.9815979,0.5686149001,441.9815979,0.5306202769,441.9815979,0.5782925487,441.9815979,0.5087965131,441.9815979,0.04071510956,
440.985321,0.0002927654132,440.985321,0.5989082456,440.985321,0.5614121556,440.985321,0.6036049724,440.985321,0.537694335,440.985321,0.04367800802,
439.9888916,0.0001401951449,439.9888916,0.6302281022,439.9888916,0.5895223022,439.9888916,0.6365346313,439.9888916,0.5616518855,439.9888916,0.04599016532,
438.9923096,-5.290769695E-005,438.9923096,0.6606589556,438.9923096,0.6158965826,438.9923096,0.668664515,438.9923096,0.5920960307,438.9923096,0.04893205315,
437.9954529,-9.370619409E-006,437.9954529,0.6978356242,437.9954529,0.6484508514,437.9954529,0.7079575062,437.9954529,0.6303872466,437.9954529,0.05152272806,
436.9984741,-1.299456198E-005,436.9984741,0.723974824,436.9984741,0.6803094745,436.9984741,0.7433621287,436.9984741,0.6631000638,436.9984741,0.05501296371,
436.0013733,-0.0001766099303,436.0013733,0.7667286396,436.0013733,0.7232100368,436.0013733,0.786611557,436.0013733,0.6992914081,436.0013733,0.05890255049,
435.0039673,0.0003952773695,435.0039673,0.8058919907,435.0039673,0.760540843,435.0039673,0.8308421373,435.0039673,0.7335312366,435.0039673,0.06334815174,
434.0064697,9.603800208E-006,434.0064697,0.8442337513,434.0064697,0.7947798371,434.0064697,0.8725684285,434.0064697,0.7746222615,434.0064697,0.0677927956,
433.008728,-7.20087919E-005,433.008728,0.8858104348,433.008728,0.8342588544,433.008728,0.9160043597,433.008728,0.8135198951,433.008728,0.07265374064,
432.0108948,0.0002761357464,432.0108948,0.9305508137,432.0108948,0.8772068024,432.0108948,0.9513936043,432.0108948,0.8561367393,432.0108948,0.07724203169,
431.0128784,0.0003050956293,431.0128784,0.9619568586,431.0128784,0.9204759598,431.0128784,1.009508252,431.0128784,0.8905621171,431.0128784,0.08190435171,
430.0146484,9.203436639E-005,430.0146484,1.011761069,430.0146484,0.9546816945,430.0146484,1.053343058,430.0146484,0.9322687984,430.0146484,0.08775571734,
429.0162354,-0.0001392441918,429.0162354,1.040252447,429.0162354,0.9954347014,429.0162354,1.087334394,429.0162354,0.9708354473,429.0162354,0.09325888008,
428.0177002,0.0002884913702,428.0177002,1.095170736,428.0177002,1.037006855,428.0177002,1.130605698,428.0177002,1.01447618,428.0177002,0.09911236167,
427.0189209,-0.0002463127894,427.0189209,1.131884575,427.0189209,1.073071241,427.0189209,1.177266359,427.0189209,1.045291543,427.0189209,0.1055035442,
425.9815979,-0.0001538906945,425.9815979,1.16882062,425.9815979,1.107300878,425.9815979,1.206011057,425.9815979,1.081450462,425.9815979,0.1110513061,
424.9824829,-3.344338256E-005,424.9824829,1.192805171,424.9824829,1.138096929,424.9824829,1.230928779,424.9824829,1.118998408,424.9824829,0.1168972254,
423.9832458,-0.0001003741854,423.9832458,1.230697632,423.9832458,1.168724656,423.9832458,1.261548519,423.9832458,1.144447446,423.9832458,0.1217079312,
422.9837952,-0.0003900298907,422.9837952,1.241785288,422.9837952,1.182324409,422.9837952,1.289886832,422.9837952,1.166119576,422.9837952,0.125937283,
421.9841614,3.950378596E-005,421.9841614,1.268238068,421.9841614,1.208908558,421.9841614,1.315919757,421.9841614,1.191926837,421.9841614,0.1302985251,
420.984375,-7.231937343E-005,420.984375,1.280626535,420.984375,1.226686716,420.984375,1.32785356,420.984375,1.201125383,420.984375,0.1330819875,
419.984436,0.0001212926945,419.984436,1.296556592,419.984436,1.2374717,419.984436,1.32857883,419.984436,1.221858621,419.984436,0.1354882121,
418.9842834,0.0001589171443,418.9842834,1.311195612,418.9842834,1.247255683,418.9842834,1.347210765,418.9842834,1.230089188,418.9842834,0.1367187947,
417.9839783,-0.0001239760895,417.9839783,1.324644089,417.9839783,1.258074641,417.9839783,1.35764575,417.9839783,1.233116984,417.9839783,0.1370549053,
416.9835205,-0.0003383013536,416.9835205,1.317422748,416.9835205,1.26386261,416.9835205,1.346559286,416.9835205,1.244282365,416.9835205,0.1365944147,
415.9828491,-5.44606628E-005,415.9828491,1.334761739,415.9828491,1.252975464,415.9828491,1.351747632,415.9828491,1.254543304,415.9828491,0.1355000585,
414.9820557,0.0002624335757,414.9820557,1.315515041,414.9820557,1.255990624,414.9820557,1.371033072,414.9820557,1.253866792,414.9820557,0.1341792345,
413.9810181,-8.194724069E-005,413.9810181,1.316444039,413.9810181,1.264213204,413.9810181,1.356970668,413.9810181,1.245830297,413.9810181,0.1315830052,
413.0184021,0.00019978208,413.0184021,1.321948051,413.0184021,1.267903447,413.0184021,1.360557318,413.0184021,1.243884802,413.0184021,0.1287735552,
412.0171204,-0.0001391406695,412.0171204,1.312288284,412.0171204,1.257943869,412.0171204,1.349220991,412.0171204,1.237631202,412.0171204,0.1257167011,
411.015625,-0.0002876014041,411.015625,1.322246671,411.015625,1.264252305,411.015625,1.339115381,411.015625,1.244527102,411.015625,0.1216971725,
410.0139771,0.000231119644,410.0139771,1.320967197,410.0139771,1.247775078,410.0139771,1.333907843,410.0139771,1.227199674,410.0139771,0.1198629066,
409.0121765,-6.377834507E-005,409.0121765,1.310475588,409.0121765,1.245834827,409.0121765,1.350133777,409.0121765,1.223014712,409.0121765,0.1164890081,
408.0101318,-0.0002474511275,408.0101318,1.319452882,408.0101318,1.23761034,408.0101318,1.338755608,408.0101318,1.238096952,408.0101318,0.1123784631,
407.0079956,-0.00010560191,407.0079956,1.314797401,407.0079956,1.240973234,407.0079956,1.334694982,407.0079956,1.232559919,407.0079956,0.1093345135,
406.0057068,-9.514639532E-005,406.0057068,1.305725813,406.0057068,1.239576817,406.0057068,1.320213795,406.0057068,1.230684876,406.0057068,0.1065535471,
405.0032349,-0.0001610843901,405.0032349,1.297190547,405.0032349,1.242936134,405.0032349,1.33534193,405.0032349,1.223344803,405.0032349,0.1041058302,
404.0005493,6.443495658E-005,404.0005493,1.296845198,404.0005493,1.242562532,404.0005493,1.330511332,404.0005493,1.217577934,404.0005493,0.101920262,
402.9977417,-9.008223969E-006,402.9977417,1.297006965,402.9977417,1.238689542,402.9977417,1.343551874,402.9977417,1.226998925,402.9977417,0.09892208129,
401.9947815,7.212429773E-005,401.9947815,1.305717945,401.9947815,1.245189905,401.9947815,1.340450048,401.9947815,1.222188473,401.9947815,0.09682617337,
400.9916077,-0.0001348449587,400.9916077,1.318500042,400.9916077,1.258038759,400.9916077,1.347648978,400.9916077,1.238617539,400.9916077,0.09470430762,
399.9883118,-0.0001189556206,399.9883118,1.321454406,399.9883118,1.253868818,399.9883118,1.349320889,399.9883118,1.232657313,399.9883118,0.09265952557,
398.9848328,0.0001215775264,398.9848328,1.311903477,398.9848328,1.248434305,398.9848328,1.353831291,398.9848328,1.238995194,398.9848328,0.09132058918,
397.9812317,-4.245277978E-006,397.9812317,1.302199244,397.9812317,1.25566411,397.9812317,1.361004472,397.9812317,1.227889299,397.9812317,0.08917052299,
397.0160522,6.290335932E-006,397.0160522,1.315926194,397.0160522,1.25188446,397.0160522,1.346211314,397.0160522,1.238585114,397.0160522,0.08741120994,
396.012085,-0.0002372059971,396.012085,1.298681259,396.012085,1.245294333,396.012085,1.354558706,396.012085,1.23815465,396.012085,0.08548227698,
395.0079956,-0.0001138315711,395.0079956,1.311095595,395.0079956,1.25092268,395.0079956,1.356426477,395.0079956,1.221758127,395.0079956,0.08454835415,
394.0037231,0.0001866261591,394.0037231,1.305134892,394.0037231,1.2403934,394.0037231,1.342316985,394.0037231,1.216597676,394.0037231,0.08272694796,
392.9992981,-0.0004150643072,392.9992981,1.310257792,392.9992981,1.22593081,392.9992981,1.3222996,392.9992981,1.217104793,392.9992981,0.08079300821,
391.9946899,-1.087209284E-006,391.9946899,1.294270873,391.9946899,1.227028131,391.9946899,1.31740284,391.9946899,1.203863621,391.9946899,0.0790785104,
390.9899292,-2.112243601E-005,390.9899292,1.279034853,390.9899292,1.21862638,390.9899292,1.314086676,390.9899292,1.185098171,390.9899292,0.07817867398,
389.9850159,7.028609252E-005,389.9850159,1.262161613,389.9850159,1.203435302,389.9850159,1.298868299,389.9850159,1.190073609,389.9850159,0.07674906403,
389.0185852,0.0001390040125,389.0185852,1.246249914,389.0185852,1.20249939,389.0185852,1.285538793,389.0185852,1.165107489,389.0185852,0.07478392869,
388.0133667,-0.0002550054633,388.0133667,1.24163413,388.0133667,1.180687904,388.0133667,1.263708949,388.0133667,1.164260864,388.0133667,0.07295899093,
387.0079956,0.0001149230156,387.0079956,1.206843972,387.0079956,1.169847727,387.0079956,1.262057304,387.0079956,1.149172068,387.0079956,0.07166676968,
386.0024414,-3.240802471E-005,386.0024414,1.19860208,386.0024414,1.146149993,386.0024414,1.226229787,386.0024414,1.115052462,386.0024414,0.07053964585,
384.9967651,6.963381111E-006,384.9967651,1.186745644,384.9967651,1.130242944,384.9967651,1.209693074,384.9967651,1.10849905,384.9967651,0.06855996698,
383.9909058,0.0001640962582,383.9909058,1.157468081,383.9909058,1.105041504,383.9909058,1.194743037,383.9909058,1.094570041,383.9909058,0.06723997742,
382.9848938,0.0003996820014,382.9848938,1.155306816,382.9848938,1.100980878,382.9848938,1.191808939,382.9848938,1.08145678,382.9848938,0.06624462456,
382.017395,-5.311475979E-005,382.017395,1.135970116,382.017395,1.082476377,382.017395,1.170183301,382.017395,1.064218283,382.017395,0.06461630017,
381.0110779,0.0007883214857,381.0110779,1.10504353,381.0110779,1.051477194,381.0110779,1.154239893,381.0110779,1.033790231,381.0110779,0.06394248456,
380.0045776,6.176831084E-005,380.0045776,1.10640645,380.0045776,1.039606571,380.0045776,1.137196422,380.0045776,1.023305297,380.0045776,0.06251191348,
378.9979858,7.533470489E-005,378.9979858,1.087637067,378.9979858,1.025972366,378.9979858,1.112116098,378.9979858,1.016159534,378.9979858,0.06184290349,
377.9912109,6.332169141E-005,377.9912109,1.075109959,377.9912109,1.014033675,377.9912109,1.108938098,377.9912109,1.000104785,377.9912109,0.0606498383,
376.9842834,-9.6492171E-005,376.9842834,1.055974364,376.9842834,1.009857655,376.9842834,1.082135201,376.9842834,0.9789824486,376.9842834,0.06048333272,
376.0158997,0.000370715803,376.0158997,1.04293704,376.0158997,0.9898716211,376.0158997,1.074659586,376.0158997,0.9766854048,376.0158997,0.05925450101,
375.008667,-0.0002440878452,375.008667,1.033292413,375.008667,0.9890611172,375.008667,1.068271875,375.008667,0.9597948194,375.008667,0.05895603448,
374.0012817,0.0005327492254,374.0012817,1.02079916,374.0012817,0.986236155,374.0012817,1.059819102,374.0012817,0.9638765454,374.0012817,0.0597047396,
372.9937439,-0.0001706585463,372.9937439,1.020222068,372.9937439,0.9673099518,372.9937439,1.056671143,372.9937439,0.9390305281,372.9937439,0.05843708664,
371.9860535,-0.0003118139575,371.9860535,1.012984633,371.9860535,0.9631229639,371.9860535,1.036852121,371.9860535,0.9370393753,371.9860535,0.05809603631,
371.0169373,0.000165287478,371.0169373,0.9985948205,371.0169373,0.9673587084,371.0169373,1.033851624,371.0169373,0.9381288886,371.0169373,0.05813187361,
370.0089722,-0.0002299618209,370.0089722,0.9953478575,370.0089722,0.9512402415,370.0089722,1.017797709,370.0089722,0.9370283484,370.0089722,0.05757918209,
369.0007935,-0.0001113989201,369.0007935,0.9972974062,369.0007935,0.9447896481,369.0007935,1.033818722,369.0007935,0.9273836017,369.0007935,0.05773760006,
367.9925232,-0.0001403310453,367.9925232,0.9799497128,367.9925232,0.9432794452,367.9925232,1.023769855,367.9925232,0.9062610269,367.9925232,0.05681435764,
366.9840393,0.0006040807348,366.9840393,0.9705955386,366.9840393,0.924754262,366.9840393,0.9874697328,366.9840393,0.9008406401,366.9840393,0.0574211441,
366.0142517,-0.0002879635722,366.0142517,0.9643217325,366.0142517,0.921184361,366.0142517,0.9957140684,366.0142517,0.899884522,366.0142517,0.05717820302,
365.0055542,-0.0002706311061,365.0055542,0.9561610818,365.0055542,0.9110953808,365.0055542,0.9788584113,365.0055542,0.8858619332,365.0055542,0.05741151422,
363.9966431,0.000248317403,363.9966431,0.9556522369,363.9966431,0.8948269486,363.9966431,0.9701917768,363.9966431,0.8789142966,363.9966431,0.05686121061,
362.9876099,-0.0004029610718,362.9876099,0.9324731827,362.9876099,0.8866972923,362.9876099,0.9607322216,362.9876099,0.8665837049,362.9876099,0.0565784201,
362.0172424,-0.0006900373846,362.0172424,0.929725647,362.0172424,0.8817717433,362.0172424,0.948277235,362.0172424,0.8532145619,362.0172424,0.05647905916,
361.0079041,0.0003952514671,361.0079041,0.9124206305,361.0079041,0.868840456,361.0079041,0.9406231046,361.0079041,0.8485302925,361.0079041,0.05649432912,
359.9984436,-0.0001471626747,359.9984436,0.900211215,359.9984436,0.8614091873,359.9984436,0.9225142002,359.9984436,0.8360186219,359.9984436,0.05581935868,
358.9888,0.0001167873052,358.9888,0.8933634162,358.9888,0.839735806,358.9888,0.9110802412,358.9888,0.8167033195,358.9888,0.0549916625,
358.0178833,0.0001618433453,358.0178833,0.8795195222,358.0178833,0.8299373388,358.0178833,0.8948659301,358.0178833,0.804695189,358.0178833,0.05459186435,
357.0079651,-0.000192083171,357.0079651,0.8600171208,357.0079651,0.8216544986,357.0079651,0.877196908,357.0079651,0.7972406149,357.0079651,0.05438473821,
355.9979248,0.0002501045819,355.9979248,0.8502455354,355.9979248,0.8097035885,355.9979248,0.860088706,355.9979248,0.7753252387,355.9979248,0.05385071039,
354.9877319,0.0003187473339,354.9877319,0.8365486264,354.9877319,0.79762429,354.9877319,0.8479095101,354.9877319,0.764213264,354.9877319,0.05331809819,
354.0162048,-0.0004554059706,354.0162048,0.8195349574,354.0162048,0.7761731148,354.0162048,0.8397805095,354.0162048,0.7506761551,354.0162048,0.05228052661,
353.0057678,0.0005258810706,353.0057678,0.8101047277,353.0057678,0.7565535307,353.0057678,0.8231593966,353.0057678,0.7315647006,353.0057678,0.0518761836,
351.9951172,0.0002354190219,351.9951172,0.7891495824,351.9951172,0.7417367697,351.9951172,0.7976196408,351.9951172,0.7157482505,351.9951172,0.05083718896,
350.984375,-2.38662069E-005,350.984375,0.7751496434,350.984375,0.7305768728,350.984375,0.7861276865,350.984375,0.7057076693,350.984375,0.04984508827,
350.0123291,0.0007898515323,350.0123291,0.7710772753,350.0123291,0.7198323011,350.0123291,0.7805687785,350.0123291,0.6962708831,350.0123291,0.05010246485,
349.0012512,0.0004667676694,349.0012512,0.7464212775,349.0012512,0.7066073418,349.0012512,0.7568894625,349.0012512,0.6736537218,349.0012512,0.04864348844,
347.9900513,-0.000198241265,347.9900513,0.7297723889,347.9900513,0.6899493337,347.9900513,0.7475170493,347.9900513,0.6621820331,347.9900513,0.04762978107,
347.0176392,-0.0001433328434,347.0176392,0.7248102427,347.0176392,0.6744303107,347.0176392,0.7220163345,347.0176392,0.6477298141,347.0176392,0.04634657875,
346.0061646,0.0001946543198,346.0061646,0.700945437,346.0061646,0.663338542,346.0061646,0.7103785872,346.0061646,0.6375908256,346.0061646,0.04579918087,
344.9945374,-0.0001703997841,344.9945374,0.6918497682,344.9945374,0.6523318887,344.9945374,0.6975077987,344.9945374,0.6254107356,344.9945374,0.04491366446,
343.9827881,-0.0001962748211,343.9827881,0.6733902097,343.9827881,0.6328982115,343.9827881,0.6776157022,343.9827881,0.6074566245,343.9827881,0.04408237711,
343.0098267,-0.0003388186742,343.0098267,0.6571128964,343.0098267,0.6218435764,343.0098267,0.6704006195,343.0098267,0.5952697396,343.0098267,0.04288110882,
341.9977722,-4.824876305E-005,341.9977722,0.6551551819,341.9977722,0.6078145504,341.9977722,0.6490383744,341.9977722,0.5834344625,341.9977722,0.0422074683,
340.9856262,-0.0007048203843,340.9856262,0.6337758303,340.9856262,0.5986656547,340.9856262,0.6338688731,340.9856262,0.5676345825,340.9856262,0.04093003646,
340.0122375,-0.0001069994105,340.0122375,0.6261236072,340.0122375,0.5818595886,340.0122375,0.6203640699,340.0122375,0.5595228672,340.0122375,0.04032425582,
338.9998169,-0.0004189951869,338.9998169,0.6158206463,338.9998169,0.5753417611,338.9998169,0.6059216261,338.9998169,0.5454041362,338.9998169,0.03919743001,
337.9872437,0.000570953649,337.9872437,0.6065112948,337.9872437,0.5637850761,337.9872437,0.5975040197,337.9872437,0.5359646082,337.9872437,0.03981869295,
337.0134583,-2.640288585E-005,337.0134583,0.5905175209,337.0134583,0.5564432144,337.0134583,0.5827336311,337.0134583,0.5258330703,337.0134583,0.03884590045,
336.0006104,0.0001975030755,336.0006104,0.5808342695,336.0006104,0.5412991643,336.0006104,0.5766375661,336.0006104,0.519667089,336.0006104,0.03737450764,
334.9876099,-4.219207767E-005,334.9876099,0.5704413056,334.9876099,0.5313533545,334.9876099,0.5665714741,334.9876099,0.5068657994,334.9876099,0.03695778549,
334.0134583,4.602768968E-005,334.0134583,0.5632599592,334.0134583,0.5247303247,334.0134583,0.5506826043,334.0134583,0.5005224943,334.0134583,0.03585671633,
333.0002136,-0.0001387266384,333.0002136,0.5515958667,333.0002136,0.5127573609,333.0002136,0.5426689386,333.0002136,0.4871915877,333.0002136,0.03550020978,
331.9868164,-0.0001983447582,331.9868164,0.5411199331,331.9868164,0.5051987171,331.9868164,0.5305765867,331.9868164,0.4794762731,331.9868164,0.0345435068,
331.0122681,8.719269681E-005,331.0122681,0.5301665664,331.0122681,0.4943790138,331.0122681,0.5225403309,331.0122681,0.4713453054,331.0122681,0.03443325311,
329.9985962,-0.0001341203752,329.9985962,0.5222717524,329.9985962,0.4865732491,329.9985962,0.5134203434,329.9985962,0.4605815411,329.9985962,0.03337162733,
328.9848022,7.088156417E-005,328.9848022,0.5175293684,328.9848022,0.478164196,328.9848022,0.5061199665,328.9848022,0.4488524497,328.9848022,0.03269400448,
328.0098877,-1.708440323E-005,328.0098877,0.5087234974,328.0098877,0.4672363698,328.0098877,0.4968086183,328.0098877,0.443315655,328.0098877,0.03227932006,
326.9958801,0.000115725692,326.9958801,0.4997148216,326.9958801,0.4601342082,326.9958801,0.4854161739,326.9958801,0.4361405075,326.9958801,0.03169739619,
325.9816589,-0.0002149556531,325.9816589,0.4901247025,325.9816589,0.4549564421,325.9816589,0.4777955115,325.9816589,0.4289701581,325.9816589,0.03112292476,
325.0063477,-6.709124864E-005,325.0063477,0.4856262505,325.0063477,0.4468392134,325.0063477,0.4726685286,325.0063477,0.4219963253,325.0063477,0.03035943024,
323.9918823,0.0004804503697,323.9918823,0.4775372744,323.9918823,0.4415664375,323.9918823,0.4622665644,323.9918823,0.4150769711,323.9918823,0.03093950637,
323.0163574,3.19444589E-005,323.0163574,0.4778190553,323.0163574,0.4333868027,323.0163574,0.4599630237,323.0163574,0.4072479308,323.0163574,0.02981655672,
322.0016479,0.0006182084326,322.0016479,0.4665408731,322.0016479,0.4299899638,322.0016479,0.4498070776,322.0016479,0.4024483562,322.0016479,0.02917399257,
320.9867859,0.0002572791709,320.9867859,0.4591685236,320.9867859,0.4241496623,320.9867859,0.443015635,320.9867859,0.3973637223,320.9867859,0.02866058052,
320.0108643,-0.0002996043768,320.0108643,0.4572263062,320.0108643,0.4210711718,320.0108643,0.4426668584,320.0108643,0.3966489732,320.0108643,0.02779803425,
318.9957581,0.0003831518698,318.9957581,0.4516232312,318.9957581,0.4151363373,318.9957581,0.437451154,318.9957581,0.3915614188,318.9957581,0.02873472124,
317.9805298,-0.0002329629933,317.9805298,0.448985219,317.9805298,0.4144575298,317.9805298,0.4323556423,317.9805298,0.3856343627,317.9805298,0.02763896622,
317.0042419,0.0004358276783,317.0042419,0.448433876,317.0042419,0.4110095799,317.0042419,0.4314686358,317.0042419,0.3852627873,317.0042419,0.02750761621,
315.9887695,-9.830378258E-005,315.9887695,0.4456968307,315.9887695,0.409322381,315.9887695,0.4269854426,315.9887695,0.3843771517,315.9887695,0.02718964219,
315.012207,0.001426067087,315.012207,0.4453048706,315.012207,0.4105332792,315.012207,0.4270776808,315.012207,0.3845647275,315.012207,0.02693169005,
313.99646,-0.0005478156381,313.99646,0.4443071783,313.99646,0.4068211019,313.99646,0.4263032079,313.99646,0.3827462494,313.99646,0.02828757837,
312.9806213,0.000529146695,312.9806213,0.4455240369,312.9806213,0.4088025689,312.9806213,0.4321502149,312.9806213,0.3823274076,312.9806213,0.02823804319,
312.0037231,0.0002088723268,312.0037231,0.4484893978,312.0037231,0.414421916,312.0037231,0.4336874187,312.0037231,0.3877804279,312.0037231,0.02794724889,
310.9876099,-0.0004294946266,310.9876099,0.4555043578,310.9876099,0.4159409106,310.9876099,0.4365055263,310.9876099,0.3923910856,310.9876099,0.02877402306,
310.010437,-0.0006431005313,310.010437,0.4577315748,310.010437,0.421900183,310.010437,0.4449492097,310.010437,0.3965896964,310.010437,0.02966533974,
308.9940796,-8.469063323E-005,308.9940796,0.4699335098,308.9940796,0.4314199388,308.9940796,0.4547949433,308.9940796,0.4045497179,308.9940796,0.02978214994,
308.0166931,0.0001979951194,308.0166931,0.4828267694,308.0166931,0.4431329966,308.0166931,0.4683537185,308.0166931,0.415846467,308.0166931,0.03104926459,
307.0000916,0.0001938515052,307.0000916,0.5018851161,307.0000916,0.4643959403,307.0000916,0.4865947664,307.0000916,0.4359148741,307.0000916,0.03204658628,
305.9833374,-6.610772834E-005,305.9833374,0.5275277495,305.9833374,0.4868837595,305.9833374,0.5172521472,305.9833374,0.4623229206,305.9833374,0.03495126963,
305.0056152,0.001086757286,305.0056152,0.5617933273,305.0056152,0.5217490196,305.0056152,0.5478062034,305.0056152,0.4934561253,305.0056152,0.03740142286,
303.9886475,0.0004162127734,303.9886475,0.5935294628,303.9886475,0.5661258698,303.9886475,0.5897570252,303.9886475,0.5385495424,303.9886475,0.04079506174,
303.0106506,0.001076117507,303.0106506,0.6538720727,303.0106506,0.6066827774,303.0106506,0.6583554745,303.0106506,0.5817152858,303.0106506,0.04648003355,
301.9934387,-0.00301932916,301.9934387,0.7054969668,301.9934387,0.6733955145,301.9934387,0.7143043876,301.9934387,0.6556144357,301.9934387,0.04682205617,
301.0151978,0.001749319839,301.0151978,0.7910171151,301.0151978,0.7414089441,301.0151978,0.7950217724,301.0151978,0.7208968997,301.0151978,0.05345362797,
299.9977722,0.001335748937,299.9977722,0.8557014465,299.9977722,0.8168144822,299.9977722,0.9006506205,299.9977722,0.7968119383,299.9977722,0.05797969922,
299.0193176,0.005050274078,299.0193176,0.9405721426,299.0193176,0.8904407024,299.0193176,0.9838204384,299.0193176,0.8881360292,299.0193176,0.06626217067,
298.0016174,0.0008779811324,298.0016174,1.043404102,298.0016174,0.9917709827,298.0016174,1.099632978,298.0016174,0.978556633,298.0016174,0.07114750892,
296.9837952,0.01152533665,296.9837952,1.156761169,296.9837952,1.089672446,296.9837952,1.224636793,296.9837952,1.090232372,296.9837952,0.09487529099,
296.0050049,0.007011413574,296.0050049,1.325538158,296.0050049,1.213692546,296.0050049,1.366204739,296.0050049,1.197359681,296.0050049,0.07621975243,
294.9869385,-0.01182401553,294.9869385,1.422047615,294.9869385,1.360333681,294.9869385,1.500577569,294.9869385,1.329052329,294.9869385,0.08773734421,
294.0079346,0.007215079851,294.0079346,1.597384691,294.0079346,1.538084626,294.0079346,1.712073207,294.0079346,1.55154407,294.0079346,0.09498989582,
292.9896545,0.00508817099,292.9896545,1.746680617,292.9896545,1.67543745,292.9896545,1.940657854,292.9896545,1.704161763,292.9896545,0.1169104055,
292.010376,0.003805945627,292.010376,1.944003463,292.010376,1.899246812,292.010376,2.293049812,292.010376,1.808967471,292.010376,0.1462880522,
290.9918518,0.00165243831,290.9918518,2.112106323,290.9918518,1.964500189,290.9918518,2.015866518,290.9918518,2.341095448,290.9918518,0.1616023928,
290.0123901,0.0008698366,290.0123901,2.048156261,290.0123901,2.078734159,290.0123901,2.290309906,290.0123901,2.519906282,290.0123901,0.1649073362,
288.9936218,0.01691798121,288.9936218,2.569218874,288.9936218,2.010461807,288.9936218,2.463364601,288.9936218,2.093079805,288.9936218,0.1792867184,
288.013916,0.03757367656,288.013916,2.742236853,288.013916,2.028871775,288.013916,10,288.013916,2.846249342,288.013916,0.1833098829,
286.9949341,0.0259026438,286.9949341,1.947621226,286.9949341,1.814099312,286.9949341,1.953342199,286.9949341,1.794472456,286.9949341,0.2243849635,
286.0150146,0.01499245036,286.0150146,1.642887712,286.0150146,1.865438342,286.0150146,2.515919685,286.0150146,2.989578247,286.0150146,0.2551301122,
284.9957886,-0.007731353864,284.9957886,2.654569387,284.9957886,2.186486006,284.9957886,2.239230633,284.9957886,10,284.9957886,0.2723143697,
284.015625,0.0497918427,284.015625,1.377815485,284.015625,2.417185068,284.015625,10,284.015625,1.321398973,284.015625,0.2722029686,
282.9962158,0.009565267712,282.9962158,1.051323533,282.9962158,10,282.9962158,0.9683055878,282.9962158,10,282.9962158,0.2590097189,
282.0158691,0.02796052769,282.0158691,1.220735788,282.0158691,0.8381860256,282.0158691,0.8054734468,282.0158691,1.012765884,282.0158691,0.2895673215,
280.9961548,-0.02812881581,280.9961548,0.9660905004,280.9961548,10,280.9961548,0.7636756301,280.9961548,10,280.9961548,0.2051970959,
280.0155945,0.05416193604,280.0155945,10,280.0155945,0.1948523372,280.0155945,-0.01226286776,280.0155945,10,280.0155945,0.1567790508,
278.995697,0.3260356188,278.995697,10,278.995697,10,278.995697,10,278.995697,10,278.995697,0.6252627969,
278.0149231,-0.1507819295,278.0149231,-0.6399105191,278.0149231,10,278.0149231,-0.3859814405,278.0149231,10,278.0149231,0.2653802335,
276.9947815,-0.08408074081,276.9947815,-0.6299725175,276.9947815,-0.4098318815,276.9947815,-0.1011435986,276.9947815,0.3358803988,276.9947815,0.3355093002,
276.0137939,-0.711163342,276.0137939,10,276.0137939,10,276.0137939,10,276.0137939,-0.7222380042,276.0137939,-0.9342616796,
274.9934387,10,274.9934387,10,274.9934387,10,274.9934387,0.3802932799,274.9934387,-0.4517712295,274.9934387,9.37691002E-005,
274.0122375,-0.4010852277,274.0122375,0.7207509875,274.0122375,-0.1909858286,274.0122375,10,274.0122375,-0.6200572848,274.0122375,-0.143884331,
272.9916687,-0.1209493652,272.9916687,-0.01282117795,272.9916687,0.6252298355,272.9916687,10,272.9916687,0.3170185685,272.9916687,0.7012085915,
272.0102539,-0.3985276222,272.0102539,-0.804692924,272.0102539,10,272.0102539,-0.7860375643,272.0102539,10,272.0102539,-0.2505881488,
270.9894409,-0.2794159055,270.9894409,0.2431027293,270.9894409,-0.576210618,270.9894409,-0.3715755641,270.9894409,10,270.9894409,0.03401861712,
270.0078125,-0.3932876289,270.0078125,10,270.0078125,-1.10528326,270.0078125,-0.9100401998,270.0078125,-0.9131654501,270.0078125,-0.7295370102,
268.9868164,0.08071281761,268.9868164,10,268.9868164,0.02384300716,268.9868164,10,268.9868164,10,268.9868164,10,
268.0049744,-0.08776529133,268.0049744,-0.007226494141,268.0049744,-0.5096682906,268.0049744,10,268.0049744,10,268.0049744,0.5994717479,
266.9837646,10,266.9837646,10,266.9837646,-1.305287719,266.9837646,10,266.9837646,10,266.9837646,10,
266.001709,10,266.001709,-0.7057864666,266.001709,10,266.001709,-0.07655249536,266.001709,-0.6365152001,266.001709,10,
265.0195618,10,265.0195618,10,265.0195618,10,265.0195618,10,265.0195618,10,265.0195618,0.07946076244,
263.9980469,10,263.9980469,-0.6678235531,263.9980469,10,263.9980469,10,263.9980469,10,263.9980469,0.5660114884,
263.0157166,0.2125349045,263.0157166,0.1159482896,263.0157166,-0.4844743013,263.0157166,-0.09710935503,263.0157166,10,263.0157166,0.4165187478,
261.9939575,0.3055335581,261.9939575,10,261.9939575,-0.2906339169,261.9939575,0.1488467455,261.9939575,-0.3945307136,261.9939575,0.1766534597,
261.0113831,0.1871999353,261.0113831,10,261.0113831,-0.510073185,261.0113831,0.4246966243,261.0113831,-0.3082235456,261.0113831,0.6794182062,
259.9894409,0.1104185656,259.9894409,10,259.9894409,-0.4140366316,259.9894409,-0.2872942686,259.9894409,0.6171995997,259.9894409,-0.1222900078,
259.0067139,0.4535982609,259.0067139,10,259.0067139,10,259.0067139,10,259.0067139,10,259.0067139,10,
257.9845276,10,257.9845276,10,257.9845276,-0.06253257394,257.9845276,10,257.9845276,10,257.9845276,10,
257.0015869,-0.3338641226,257.0015869,10,257.0015869,10,257.0015869,-0.6337378025,257.0015869,-0.9044257402,257.0015869,-0.4357099831,
256.0185242,10,256.0185242,-0.5380023122,256.0185242,-0.6253890395,256.0185242,-0.4737455845,256.0185242,10,256.0185242,-0.06456311792,
254.9960938,0.001189898117,254.9960938,10,254.9960938,10,254.9960938,10,254.9960938,-0.08528194577,254.9960938,-0.01011251658,
254.0128326,0.07164649665,254.0128326,-0.2584610283,254.0128326,-1.152570844,254.0128326,10,254.0128326,-0.8864089847,254.0128326,-0.3903832436,
252.9901428,-0.1042189524,252.9901428,10,252.9901428,-0.08388689905,252.9901428,-0.1707678884,252.9901428,-0.2902077138,252.9901428,0.02005459182,
252.0067139,10,252.0067139,10,252.0067139,3.609284878,252.0067139,10,252.0067139,10,252.0067139,3.982791185,
250.9838104,0.2135145068,250.9838104,-0.1610256881,250.9838104,10,250.9838104,-0.1858157516,250.9838104,-0.4747821093,250.9838104,0.4815160334,
250.0001678,0.1444974095,250.0001678,-0.5463989973,250.0001678,10,250.0001678,10,250.0001678,10,250.0001678,-0.2056090832,
249.0164642,-0.7752203941,249.0164642,10,249.0164642,-0.0742046684,249.0164642,-1.029628634,249.0164642,-1.09720552,249.0164642,-0.6044781804,
247.9933014,0.7868462205,247.9933014,-0.007765020709,247.9933014,-0.3584448993,247.9933014,10,247.9933014,-0.1743828505,247.9933014,0.6815214157,
247.0093842,10,247.0093842,10,247.0093842,-0.5332137346,247.0093842,10,247.0093842,-0.2025600523,247.0093842,-0.3565985262,
245.9859924,0.4375495613,245.9859924,0.1164558008,245.9859924,10,245.9859924,0.1708263904,245.9859924,-0.4498693347,245.9859924,0.2417206019,
245.0018921,10,245.0018921,10,245.0018921,0.02151950076,245.0018921,10,245.0018921,10,245.0018921,10,
244.0176697,-0.09497748315,244.0176697,10,244.0176697,10,244.0176697,10,244.0176697,0.1281068623,244.0176697,0.1713335961,
242.9940338,-0.1998092681,242.9940338,10,242.9940338,10,242.9940338,-0.2315834463,242.9940338,-0.5177133083,242.9940338,0.16752626,
242.0096436,0.7018454671,242.0096436,0.6938475966,242.0096436,10,242.0096436,0.7059993744,242.0096436,-0.09369090199,242.0096436,0.1983988434,
240.9857635,0.04572172463,240.9857635,10,240.9857635,0.07392306626,240.9857635,10,240.9857635,1.012378335,240.9857635,10,
240.0011749,-0.2027037293,240.0011749,-0.2949382961,240.0011749,10,240.0011749,-0.7505910993,240.0011749,-0.5195865631,240.0011749,-0.239103362,
239.0165253,-0.4817746282,239.0165253,10,239.0165253,10,239.0165253,10,239.0165253,-0.6919308305,239.0165253,-0.2539654374,
237.9924011,0.260724932,237.9924011,10,237.9924011,10,237.9924011,0.264688164,237.9924011,10,237.9924011,10,
237.0075378,-0.3804499805,237.0075378,10,237.0075378,-0.7473458648,237.0075378,0.3788105249,237.0075378,-0.2262070775,237.0075378,-0.2890190482,
235.9832001,0.2987126112,235.9832001,0.00545869628,235.9832001,-0.1877173036,235.9832001,10,235.9832001,10,235.9832001,0.4181482196,
234.9981842,1.280451775,234.9981842,10,234.9981842,10,234.9981842,-0.4831758738,234.9981842,10,234.9981842,0.3172007501,
234.013031,10,234.013031,10,234.013031,-1.026735067,234.013031,-0.7774360776,234.013031,-1.563779354,234.013031,10,
232.9884338,0.4786693454,232.9884338,-0.8582539558,232.9884338,10,232.9884338,0.5439121127,232.9884338,10,232.9884338,10,
232.0031281,10,232.0031281,-1.010308743,232.0031281,-0.2058016807,232.0031281,0.4704154134,232.0031281,10,232.0031281,10,
231.017746,-0.4455812275,231.017746,10,231.017746,10,231.017746,-0.968352735,231.017746,-0.4852532446,231.017746,-0.3293267787,
229.9928284,10,229.9928284,10,229.9928284,-0.6772091985,229.9928284,10,229.9928284,-0.3134037852,229.9928284,-0.09510318935,
229.0072784,0.01013132371,229.0072784,-0.3749561012,229.0072784,-0.4844662249,229.0072784,0.009340025485,229.0072784,10,229.0072784,0.0195161812,
227.982193,-0.2199668735,227.982193,-0.4720486104,227.982193,10,227.982193,10,227.982193,-0.3092468381,227.982193,0.2548931837,
226.9964294,-0.03430157155,226.9964294,-0.3741412759,226.9964294,-0.1840150505,226.9964294,10,226.9964294,-0.4781206846,226.9964294,-0.187253058,
226.0106049,0.03746180609,226.0106049,10,226.0106049,0.2422385812,226.0106049,-0.4484242201,226.0106049,-0.4842778742,226.0106049,-0.1210851669,
224.9852905,-0.2808671296,224.9852905,10,224.9852905,0.1067637503,224.9852905,10,224.9852905,10,224.9852905,-0.1998030245,
223.9992676,0.1195592284,223.9992676,10,223.9992676,-0.3115011752,223.9992676,-0.4273787439,223.9992676,0.05468812585,223.9992676,-0.3368044496,
223.0131836,-0.3057115674,223.0131836,-0.3863265216,223.0131836,0.3257094324,223.0131836,10,223.0131836,10,223.0131836,10,
221.9875793,-0.2309491634,221.9875793,10,221.9875793,-0.08486432582,221.9875793,-0.9203826785,221.9875793,-0.761926651,221.9875793,-0.2456984818,
221.0013275,-0.3715697527,221.0013275,-0.4333747923,221.0013275,-0.6342720985,221.0013275,10,221.0013275,-0.4479331672,221.0013275,-0.142629385,
220.0149689,4.066847324,220.0149689,10,220.0149689,10,220.0149689,3.517380714,220.0149689,3.630415201,220.0149689,4.51813221,
218.98909,0.501927793,218.98909,10,218.98909,-0.5267730951,218.98909,0.293846637,218.98909,-0.4872177839,218.98909,0.04230230302,
218.0025787,10,218.0025787,10,218.0025787,-0.1789195836,218.0025787,10,218.0025787,10,218.0025787,0.236444667,
217.015976,0.11123804,217.015976,-0.08238206059,217.015976,-0.4808875322,217.015976,-0.04236069322,217.015976,-0.3519430459,217.015976,-0.02213931456,
215.9898376,0.4762766659,215.9898376,-0.3004411459,215.9898376,10,215.9898376,0.475358367,215.9898376,0.8328556418,215.9898376,0.5574768186,
215.003067,-0.2038725764,215.003067,-0.424400419,215.003067,0.453024894,215.003067,-0.5851160288,215.003067,-0.3452571034,215.003067,0.1831481159,
214.0162354,-0.2632397711,214.0162354,10,214.0162354,10,214.0162354,-0.03171438351,214.0162354,-1.02474463,214.0162354,-0.6260157824,
212.9898224,10,212.9898224,-0.5793664455,212.9898224,-0.3263913691,212.9898224,-0.5103471279,212.9898224,10,212.9898224,-0.007136004046,
212.0028229,-0.1820954829,212.0028229,-0.5883470774,212.0028229,10,212.0028229,10,212.0028229,-0.8881921768,212.0028229,10,
211.0157318,-0.0175345242,211.0157318,10,211.0157318,10,211.0157318,10,211.0157318,10,211.0157318,10,
209.98909,4.302027702,209.98909,10,209.98909,10,209.98909,3.861813068,209.98909,3.582366467,209.98909,3.893299341,
209.0018311,-0.06569570303,209.0018311,-0.3872435689,209.0018311,10,209.0018311,-0.1280226409,209.0018311,10,209.0018311,0.517827034,
208.0145111,10,208.0145111,-0.5485236049,208.0145111,10,208.0145111,-0.3637742102,208.0145111,-0.340662986,208.0145111,0.06014069915,
206.9876099,-0.2769218087,206.9876099,10,206.9876099,-0.2693747878,206.9876099,-0.3854268491,206.9876099,10,206.9876099,-0.1481054276,
206.0001221,0.2176740766,206.0001221,0.2036368251,206.0001221,0.02134585753,206.0001221,-0.035279423,206.0001221,10,206.0001221,0.02986377478,
205.0125427,3.493155956,205.0125427,10,205.0125427,3.086270809,205.0125427,10,205.0125427,3.886358976,205.0125427,3.855276823,
203.9854279,0.1518830508,203.9854279,10,203.9854279,10,203.9854279,10,203.9854279,-0.2803274989,203.9854279,10,
202.9976807,0.2388130873,202.9976807,-0.1700522751,202.9976807,10,202.9976807,10,202.9976807,1.342966199,202.9976807,0.5353224874,
202.0098877,0.4139125943,202.0098877,-0.1472077519,202.0098877,-0.02411624417,202.0098877,10,202.0098877,-0.5379117727,202.0098877,0.9751854539,
200.9824982,10,200.9824982,-0.2879162729,200.9824982,-0.5997735262,200.9824982,10,200.9824982,0.361344099,200.9824982,0.4022427201,
199.9945374,-0.6681759357,199.9945374,10,199.9945374,10,199.9945374,10,199.9945374,-0.5888782144,199.9945374,-0.3495590985,

blank,
blank
Collection Time: 25/04/2022 12:50:22
Operator Name  :
Scan Version 5.0.0.999
Parameter List :
Instrument  Cary 60
Instrument Version  2.00
Start (nm)  800.0
Stop (nm)  200.0
X Mode  Nanometers
Y Mode  Abs
UV-Vis Scan Rate (nm/min)  4800.000
UV-Vis Data Interval (nm)  1.00
UV-Vis Ave. Time (sec)  0.0125
Beam Mode  Dual Beam
Baseline Correction  On
Baseline Type  Baseline correction
Baseline File Name
Baseline Std Ref File Name
Cycle Mode  Off
Method Log     :
Method Name    :
Date/Time stamp: 25/04/2022 12:49:31
Method Modifications:
Common Interval nm Changed: 25/04/2022 12:49:58, Old:     5.00, New:     1.00
Baseline Correction Changed: 25/04/2022 12:49:58, Old:0, New:1
Storage Changed: 25/04/2022 12:49:58, Old:1, New:0
End Method Modifications
<Current Wavelength> , 229.0

bm3-a82f-heme-20in1000-tube-53,
bm3-a82f-heme-20in1000-tube-53
Collection Time: 25/04/2022 12:51:01
Operator Name  :
Scan Version 5.0.0.999
Parameter List :
Instrument  Cary 60
Instrument Version  2.00
Start (nm)  800.0
Stop (nm)  200.0
X Mode  Nanometers
Y Mode  Abs
UV-Vis Scan Rate (nm/min)  4800.000
UV-Vis Data Interval (nm)  1.00
UV-Vis Ave. Time (sec)  0.0125
Beam Mode  Dual Beam
Baseline Correction  On
Baseline Type  Baseline correction
Baseline File Name
Baseline Std Ref File Name
Cycle Mode  Off
Method Log     :
Method Name    :
Date/Time stamp: 25/04/2022 12:49:31
Method Modifications:
Common Interval nm Changed: 25/04/2022 12:49:58, Old:     5.00, New:     1.00
Baseline Correction Changed: 25/04/2022 12:49:58, Old:0, New:1
Storage Changed: 25/04/2022 12:49:58, Old:1, New:0
End Method Modifications
<Current Wavelength> , 218.0

bm3-a82f-heme-20in1000-tube-54,
bm3-a82f-heme-20in1000-tube-54
Collection Time: 25/04/2022 12:51:27
Operator Name  :
Scan Version 5.0.0.999
Parameter List :
Instrument  Cary 60
Instrument Version  2.00
Start (nm)  800.0
Stop (nm)  200.0
X Mode  Nanometers
Y Mode  Abs
UV-Vis Scan Rate (nm/min)  4800.000
UV-Vis Data Interval (nm)  1.00
UV-Vis Ave. Time (sec)  0.0125
Beam Mode  Dual Beam
Baseline Correction  On
Baseline Type  Baseline correction
Baseline File Name
Baseline Std Ref File Name
Cycle Mode  Off
Method Log     :
Method Name    :
Date/Time stamp: 25/04/2022 12:49:31
Method Modifications:
Common Interval nm Changed: 25/04/2022 12:49:58, Old:     5.00, New:     1.00
Baseline Correction Changed: 25/04/2022 12:49:58, Old:0, New:1
Storage Changed: 25/04/2022 12:49:58, Old:1, New:0
End Method Modifications
<Current Wavelength> , 212.0

bm3-a82f-heme-20in1000-tube-55,
bm3-a82f-heme-20in1000-tube-55
Collection Time: 25/04/2022 12:51:46
Operator Name  :
Scan Version 5.0.0.999
Parameter List :
Instrument  Cary 60
Instrument Version  2.00
Start (nm)  800.0
Stop (nm)  200.0
X Mode  Nanometers
Y Mode  Abs
UV-Vis Scan Rate (nm/min)  4800.000
UV-Vis Data Interval (nm)  1.00
UV-Vis Ave. Time (sec)  0.0125
Beam Mode  Dual Beam
Baseline Correction  On
Baseline Type  Baseline correction
Baseline File Name
Baseline Std Ref File Name
Cycle Mode  Off
Method Log     :
Method Name    :
Date/Time stamp: 25/04/2022 12:49:31
Method Modifications:
Common Interval nm Changed: 25/04/2022 12:49:58, Old:     5.00, New:     1.00
Baseline Correction Changed: 25/04/2022 12:49:58, Old:0, New:1
Storage Changed: 25/04/2022 12:49:58, Old:1, New:0
End Method Modifications
<Current Wavelength> , 257.0

bm3-a82f-heme-20in1000-tube-57,
bm3-a82f-heme-20in1000-tube-57
Collection Time: 25/04/2022 12:52:08
Operator Name  :
Scan Version 5.0.0.999
Parameter List :
Instrument  Cary 60
Instrument Version  2.00
Start (nm)  800.0
Stop (nm)  200.0
X Mode  Nanometers
Y Mode  Abs
UV-Vis Scan Rate (nm/min)  4800.000
UV-Vis Data Interval (nm)  1.00
UV-Vis Ave. Time (sec)  0.0125
Beam Mode  Dual Beam
Baseline Correction  On
Baseline Type  Baseline correction
Baseline File Name
Baseline Std Ref File Name
Cycle Mode  Off
Method Log     :
Method Name    :
Date/Time stamp: 25/04/2022 12:49:31
Method Modifications:
Common Interval nm Changed: 25/04/2022 12:49:58, Old:     5.00, New:     1.00
Baseline Correction Changed: 25/04/2022 12:49:58, Old:0, New:1
Storage Changed: 25/04/2022 12:49:58, Old:1, New:0
End Method Modifications
<Current Wavelength> , 279.4

bm3-a82f-heme-20in1000-post-lipidex,
bm3-a82f-heme-20in1000-post-lipidex
Collection Time: 25/04/2022 14:41:35
Operator Name  :
Scan Version 5.0.0.999
Parameter List :
Instrument  Cary 60
Instrument Version  2.00
Start (nm)  800.0
Stop (nm)  200.0
X Mode  Nanometers
Y Mode  Abs
UV-Vis Scan Rate (nm/min)  4800.000
UV-Vis Data Interval (nm)  1.00
UV-Vis Ave. Time (sec)  0.0125
Beam Mode  Dual Beam
Baseline Correction  On
Baseline Type  Baseline correction
Baseline File Name
Baseline Std Ref File Name
Cycle Mode  Off
Method Log     :
Method Name    :
Date/Time stamp: 25/04/2022 12:49:31
Method Modifications:
Common Interval nm Changed: 25/04/2022 12:49:58, Old:     5.00, New:     1.00
Baseline Correction Changed: 25/04/2022 12:49:58, Old:0, New:1
Storage Changed: 25/04/2022 12:49:58, Old:1, New:0
End Method Modifications
<Current Wavelength> , 273.0

