blank,,bm3-a82f-f87v-kpi,,bm3-a82f-f87v-kpi_bsa,,
Wavelength (nm),Abs,Wavelength (nm),Abs,Wavelength (nm),Abs,
799.9885864,0.001140245236,799.9885864,-0.01391143259,799.9885864,-0.01164159644,
798.9837646,-0.0001495951292,798.9837646,-0.01396562997,798.9837646,-0.01256937347,
798.0132446,-0.0009843107546,798.0132446,-0.01618138701,798.0132446,-0.01281449292,
797.0076904,0.0005439976812,797.0076904,-0.01367666479,797.0076904,-0.01194148976,
796.00177,0.0009244910907,796.00177,-0.01375827845,796.00177,-0.01314687915,
794.9953613,0.0003818046243,794.9953613,-0.01357782446,794.9953613,-0.01125746034,
793.9886475,0.001716599101,793.9886475,-0.01395440008,793.9886475,-0.01231993921,
793.0161743,0.0003067534999,793.0161743,-0.01344734058,793.0161743,-0.01088469755,
792.008606,-0.0006098074955,792.008606,-0.01508447342,792.008606,-0.01184215304,
791.0006104,0.001195816323,791.0006104,-0.01527389884,791.0006104,-0.01182129513,
789.9921875,0.001328374725,789.9921875,-0.01382648759,789.9921875,-0.01088489965,
788.9834595,0.000659427722,788.9834595,-0.01343845669,788.9834595,-0.01224313863,
788.0090332,0.001157323248,788.0090332,-0.01350807026,788.0090332,-0.01163292769,
786.9995117,0.001514819334,786.9995117,-0.01485544164,786.9995117,-0.01205112599,
785.989563,0.001674993546,785.989563,-0.01369678043,785.989563,-0.009964746423,
785.0140381,0.0003266225103,785.0140381,-0.01469231024,785.0140381,-0.01199568156,
784.0032959,0.0005844063708,784.0032959,-0.01355383825,784.0032959,-0.01098758448,
782.9921875,0.00185430795,782.9921875,-0.01204901189,782.9921875,-0.01019566227,
782.0155029,0.0004119634395,782.0155029,-0.01433295384,782.0155029,-0.01184643526,
781.0036011,0.00105745974,781.0036011,-0.01546678971,781.0036011,-0.01087161992,
779.991272,0.001880617463,779.991272,-0.01289923396,779.991272,-0.01004539058,
779.0134888,5.977481487E-005,779.0134888,-0.01443317533,779.0134888,-0.01213435549,
778.0004272,0.001446870388,778.0004272,-0.01297858264,778.0004272,-0.01067187823,
776.9869385,0.0006358363316,776.9869385,-0.01300275046,776.9869385,-0.01143378764,
776.0079956,0.002273031045,776.0079956,-0.01183227822,776.0079956,-0.008983563632,
774.9937744,0.001691598911,774.9937744,-0.01278991159,774.9937744,-0.009633306414,
774.0140991,0.002012032783,774.0140991,-0.01393850707,774.0140991,-0.01071395539,
772.9990234,0.001298489748,772.9990234,-0.01277834922,772.9990234,-0.01046683919,
771.9836426,0.003014348214,771.9836426,-0.01136313379,771.9836426,-0.009342962876,
771.0028687,0.000819753448,771.0028687,-0.01444659568,771.0028687,-0.01106854528,
769.9866943,0.00254413276,769.9866943,-0.01117295306,769.9866943,-0.009040661156,
769.005127,0.0004131552996,769.005127,-0.01376449782,769.005127,-0.0102570001,
767.9882202,0.0003321144904,767.9882202,-0.01431467012,767.9882202,-0.01095194556,
767.0059204,0.000999181997,767.0059204,-0.01357255504,767.0059204,-0.009174603969,
765.9881592,3.489568553E-005,765.9881592,-0.01346982736,765.9881592,-0.01073794719,
765.005188,0.001462168409,765.005188,-0.01319615077,765.005188,-0.008591839112,
763.9866943,0.001427027979,763.9866943,-0.01396277267,763.9866943,-0.009772837162,
763.0029297,7.403450127E-006,763.0029297,-0.01421226747,763.0029297,-0.009885097854,
761.9837646,0.000218895133,761.9837646,-0.01366743352,761.9837646,-0.009740996175,
760.9992676,-0.000574753969,760.9992676,-0.01381645724,760.9992676,-0.01029714569,
760.0144043,-0.0006203540252,760.0144043,-0.01302932948,760.0144043,-0.01039107423,
758.9940796,-0.0003051401291,758.9940796,-0.01385607477,758.9940796,-0.009512066841,
758.0084839,0.0007540394436,758.0084839,-0.01309318189,758.0084839,-0.008561434224,
756.9873657,0.0003779701365,756.9873657,-0.01331571396,756.9873657,-0.008682077751,
756.0011597,-0.0002901365515,756.0011597,-0.01402368117,756.0011597,-0.009900380857,
755.0144043,0.001729983371,755.0144043,-0.01351554878,755.0144043,-0.008336452767,
753.9921875,7.479100168E-005,753.9921875,-0.01453737821,753.9921875,-0.01017482672,
753.0048218,0.001349381171,753.0048218,-0.01328277588,753.0048218,-0.009096839465,
752.0170898,-0.0007247198373,752.0170898,-0.01496334467,752.0170898,-0.00948005449,
750.9937134,0.001196205616,750.9937134,-0.0117480848,750.9937134,-0.00787515752,
750.0053101,0.0009195622988,750.0053101,-0.0138727231,750.0053101,-0.008756821975,
749.0164185,-0.0006689474685,749.0164185,-0.01286360063,749.0164185,-0.008582702838,
747.9919434,0.0003872714005,747.9919434,-0.01180527359,747.9919434,-0.007223693654,
747.0024414,0.000738792296,747.0024414,-0.01325691491,747.0024414,-0.008588489145,
746.0125732,-0.0002147486666,746.0125732,-0.01278076228,746.0125732,-0.007988164201,
744.9869385,0.0005104087177,744.9869385,-0.01285535749,744.9869385,-0.006873848382,
743.9963379,-0.0009076483548,743.9963379,-0.01232693437,743.9963379,-0.007044476457,
743.0053711,0.00289354776,743.0053711,-0.01041574124,743.0053711,-0.004915315658,
742.0141602,-0.0003524755884,742.0141602,-0.0116780363,742.0141602,-0.006743628532,
740.9870605,0.001005668542,740.9870605,-0.01148053072,740.9870605,-0.006661042571,
739.9950562,0.000623444852,739.9950562,-0.0115537364,739.9950562,-0.007088637911,
739.0026245,0.0002174965921,739.0026245,-0.01185112074,739.0026245,-0.007421159185,
738.0099487,0.0006965284119,738.0099487,-0.01150069851,738.0099487,-0.00734531926,
737.0169067,0.0008962680586,737.0169067,-0.01227399148,737.0169067,-0.005889327265,
735.9880371,0.001240101759,735.9880371,-0.01181938127,735.9880371,-0.006622955669,
734.9942627,0.0002677952289,734.9942627,-0.0113672195,734.9942627,-0.006121756509,
734.000061,0.0006766683655,734.000061,-0.01206014026,734.000061,-0.006220266689,
733.0056763,0.0003287208674,733.0056763,-0.0119702993,733.0056763,-0.006379724015,
732.0108643,0.0006163679063,732.0108643,-0.01172566041,732.0108643,-0.005734594539,
731.015686,-0.0001361906034,731.015686,-0.01186603215,731.015686,-0.006341969594,
729.9846802,0.0008842063835,729.9846802,-0.01155313104,729.9846802,-0.005192621611,
728.9887695,0.0008897572989,728.9887695,-0.01165334042,728.9887695,-0.005596826319,
727.9925537,0.001129292767,727.9925537,-0.01140327845,727.9925537,-0.004986871965,
726.9960327,0.001823996776,726.9960327,-0.01011438761,726.9960327,-0.00404478889,
725.9990845,0.000741955766,725.9990845,-0.01056174096,725.9990845,-0.00466031814,
725.0019531,0.0004500017676,725.0019531,-0.01087045856,725.0019531,-0.004742107354,
724.0043335,0.001481207204,724.0043335,-0.01034931932,724.0043335,-0.004926781636,
723.0064697,0.001180917025,723.0064697,-0.01097117923,723.0064697,-0.004958056379,
722.0081177,-0.0002643188345,722.0081177,-0.01177862007,722.0081177,-0.005356905516,
721.0095825,0.0009208334377,721.0095825,-0.01049134973,721.0095825,-0.004314039368,
720.0105591,0.000885243935,720.0105591,-0.01103477925,720.0105591,-0.004648793489,
719.0114136,0.001524352818,719.0114136,-0.009753601626,719.0114136,-0.003730408847,
718.0117188,0.0003554821305,718.0117188,-0.01119545661,718.0117188,-0.004699191544,
717.0117188,0.0008023255505,717.0117188,-0.01005879696,717.0117188,-0.004225965589,
716.0114746,0.001035118126,716.0114746,-0.01094265655,716.0114746,-0.003867128165,
715.0107422,0.0005318680196,715.0107422,-0.01167778485,715.0107422,-0.005226230249,
714.0098267,0.001616035355,714.0098267,-0.01047143806,714.0098267,-0.004640085623,
713.0084839,0.001510195667,713.0084839,-0.01055027079,713.0084839,-0.003933676053,
712.006897,0.0005096571404,712.006897,-0.01115837041,712.006897,-0.004081614781,
711.0048828,0.0006290961755,711.0048828,-0.01080905553,711.0048828,-0.004034068435,
710.0025635,0.0007761072484,710.0025635,-0.009890664369,710.0025635,-0.003521705745,
708.9998779,0.000848542084,708.9998779,-0.0102958316,708.9998779,-0.00355857634,
707.9968872,0.001095736283,707.9968872,-0.01060195919,707.9968872,-0.003947323188,
706.9935303,0.001531444606,706.9935303,-0.009916523471,706.9935303,-0.00383608276,
705.9898682,0.001752204844,705.9898682,-0.0102377357,705.9898682,-0.003962713759,
704.9859009,0.001737312414,704.9859009,-0.009641155601,704.9859009,-0.003974820953,
704.0174561,0.0004673377844,704.0174561,-0.009567728266,704.0174561,-0.003270872636,
703.0127563,0.0006084874622,703.0127563,-0.00869780872,703.0127563,-0.002633455442,
702.0078125,0.0005320753553,702.0078125,-0.01000871323,702.0078125,-0.003530846676,
701.0025024,4.217028982E-005,701.0025024,-0.009118284099,701.0025024,-0.002451561391,
699.9968262,-0.00112664781,699.9968262,-0.009862020612,699.9968262,-0.003442100016,
698.9908447,8.928988245E-005,698.9908447,-0.01198379602,698.9908447,-0.005490557756,
697.9845581,0.0007014806033,697.9845581,-0.01010174304,697.9845581,-0.003849527566,
697.013855,0.0009639234049,697.013855,-0.01019930374,697.013855,-0.004238731693,
696.006897,0.001387293916,696.006897,-0.00957603287,696.006897,-0.00321717374,
694.9996338,0.000985690509,694.9996338,-0.009483043104,694.9996338,-0.003837211756,
693.9920044,0.001251394511,693.9920044,-0.008466703817,693.9920044,-0.003104923759,
692.9840698,-0.0003259373188,692.9840698,-0.009745856747,692.9840698,-0.00327868294,
692.0117798,0.001299242722,692.0117798,-0.008484473452,692.0117798,-0.003356674686,
691.0032349,0.001501779421,691.0032349,-0.006635090802,691.0032349,-0.001888411585,
689.9943237,0.002187661827,689.9943237,-0.007022419013,689.9943237,-0.0007900455385,
688.9850464,0.001414951519,688.9850464,-0.007404261734,688.9850464,-0.002708218992,
688.0115967,0.001505571883,688.0115967,-0.007744017523,688.0115967,-0.002885582624,
687.001709,0.0002242044575,687.001709,-0.007256483193,687.001709,-0.002778442577,
685.9914551,0.001335047884,685.9914551,-0.006507094484,685.9914551,-0.00186753436,
685.0170288,0.001409186167,685.0170288,-0.005173437297,685.0170288,-0.0006237661,
684.0062866,0.0007896440802,684.0062866,-0.007116039749,684.0062866,-0.001295057707,
682.9950562,0.001121506793,682.9950562,-0.005220705643,682.9950562,-0.00173771265,
681.9835815,0.0001389263198,681.9835815,-0.004375752527,681.9835815,-0.001247824868,
681.0078735,0.001587819308,681.0078735,-0.004020475782,681.0078735,-0.001332066138,
679.9957886,-0.0004047196708,679.9957886,-0.005728463642,679.9957886,-0.002662991872,
678.9833374,0.0001856938616,678.9833374,-0.004694121424,678.9833374,-0.001909287763,
678.0067749,0.0007082218654,678.0067749,-0.004242577124,678.0067749,-0.001278591342,
676.9937134,0.0006300034584,676.9937134,-0.002883628244,676.9937134,-0.0005200482556,
676.0164795,0.0001086311095,676.0164795,-0.002870205091,676.0164795,-0.001272758236,
675.0028076,0.001554721035,675.0028076,-0.001722603804,675.0028076,-0.0002067796595,
673.9888306,0.001353276079,673.9888306,-0.001490851399,673.9888306,-0.000635811477,
673.0107422,0.0001292937668,673.0107422,-0.002354303841,673.0107422,-0.001684855088,
671.9960327,0.001432507881,671.9960327,-0.000317970349,671.9960327,0.0001998856605,
671.017395,-0.001103771734,671.017395,-0.0001974132902,671.017395,-0.000354027492,
670.0020752,-0.0006269713049,670.0020752,0.001073470572,670.0020752,-0.0003015703405,
668.9865112,0.0006065433263,668.9865112,0.001544537372,668.9865112,-0.0004872111604,
668.006897,0.0006542167393,668.006897,0.002908036811,668.006897,-0.0006134264404,
666.9906616,0.001573711867,666.9906616,0.00354016223,666.9906616,0.0003591091663,
666.010437,0.001172403456,666.010437,0.004965823609,666.010437,-0.0004817811714,
664.9936523,0.0006708609289,664.9936523,0.005811252166,664.9936523,6.47456327E-005,
664.0128784,0.0008572309744,664.0128784,0.007019621786,664.0128784,0.0009555956349,
662.9953613,0.001198905287,662.9953613,0.009037134238,662.9953613,0.00238173781,
662.0140381,-0.0005041729892,662.0140381,0.009583394974,662.0140381,0.001398071065,
660.9959717,-0.0003679425572,660.9959717,0.01195330732,660.9959717,0.00167595502,
660.0139771,2.53948765E-005,660.0139771,0.01166762784,660.0139771,0.001303293044,
658.9952393,8.51214063E-005,658.9952393,0.01198829897,658.9952393,0.001166641247,
658.0127563,0.0001971404999,658.0127563,0.01402726304,658.0127563,0.002048234921,
656.9934692,-0.0001536836789,656.9934692,0.01555312704,656.9934692,0.002081084531,
656.0102539,0.001404901152,656.0102539,0.01835332066,656.0102539,0.004278862849,
654.9904175,-0.0003136246814,654.9904175,0.01755440421,654.9904175,0.002028208924,
654.0066528,0.001016747556,654.0066528,0.01884430274,654.0066528,0.004217877518,
652.986145,0.0002975316602,652.986145,0.01876877621,652.986145,0.002977752592,
652.00177,0.0002490426414,652.00177,0.02059529908,652.00177,0.004165943246,
651.0170898,0.0003774260695,651.0170898,0.01977602392,651.0170898,0.00385600864,
649.9957886,0.000787232304,649.9957886,0.0204670392,649.9957886,0.003935228102,
649.0105591,0.0004527744313,649.0105591,0.02188289352,649.0105591,0.004479499068,
647.9885864,0.0009180058842,647.9885864,0.02210318856,647.9885864,0.004535499029,
647.0027466,0.0001445972011,647.0027466,0.02077752165,647.0027466,0.004367258865,
646.0167236,-0.0005332340952,646.0167236,0.02025942504,646.0167236,0.003131792415,
644.9937744,-6.471009692E-005,644.9937744,0.0200279709,644.9937744,0.004166309256,
644.0071411,-7.402755728E-005,644.0071411,0.02112034708,644.0071411,0.004874845035,
642.9836426,0.0009550767718,642.9836426,0.02005217969,642.9836426,0.004207761958,
641.9963989,0.0002424379782,641.9963989,0.02045566961,641.9963989,0.004783702083,
641.0089111,0.0001693013473,641.0089111,0.01849132963,641.0089111,0.004466761835,
639.984436,-0.0004889176926,639.984436,0.01882240549,639.984436,0.004600244109,
638.99646,0.0006253113388,638.99646,0.01734693721,638.99646,0.005496523809,
638.0080566,0.0009038943099,638.0080566,0.01923671365,638.0080566,0.0049836291,
636.9827881,0.0008823647513,636.9827881,0.01826370507,636.9827881,0.005291041452,
635.9938354,-0.0002145416802,635.9938354,0.01728053391,635.9938354,0.006380156148,
635.0045776,-0.0002362228697,635.0045776,0.01606096327,635.0045776,0.005016308744,
634.0151367,0.0007545839762,634.0151367,0.01623796113,634.0151367,0.005216656718,
632.9887085,0.0004028170952,632.9887085,0.01560335513,632.9887085,0.004699068144,
631.9985962,-0.000426339655,631.9985962,0.01477045566,631.9985962,0.005077328067,
631.0083008,0.0008037259686,631.0083008,0.01528673526,631.0083008,0.005330400541,
630.0177002,-0.000940195343,630.0177002,0.01421306189,630.0177002,0.005049488507,
628.9901123,0.0002690644178,628.9901123,0.0141261965,628.9901123,0.005250873975,
627.9989014,0.001531522488,627.9989014,0.01494917832,627.9989014,0.005691586062,
627.0073853,0.0001972958853,627.0073853,0.01417874731,627.0073853,0.005932184402,
626.015686,0.001351562329,626.015686,0.01333463844,626.015686,0.006147421896,
624.9869385,0.0008815865731,624.9869385,0.01326417457,624.9869385,0.005627569743,
623.9945679,0.001074015629,623.9945679,0.01327380911,623.9945679,0.005543452222,
623.0020752,0.00103392452,623.0020752,0.01282419264,623.0020752,0.006336604245,
622.0092163,0.001106687938,622.0092163,0.01392736286,622.0092163,0.006538351066,
621.0161133,0.0001569749875,621.0161133,0.01374558639,621.0161133,0.00685791159,
619.9859619,-0.0002721833007,619.9859619,0.01290311851,619.9859619,0.005610996392,
618.9922485,0.0006178455078,618.9922485,0.01306640264,618.9922485,0.006638641935,
617.9983521,0.0008631706005,617.9983521,0.01404306386,617.9983521,0.006637695711,
617.0040283,0.0003051474341,617.0040283,0.0138858268,617.0040283,0.007459210232,
616.0095825,0.001495727105,616.0095825,0.01541502867,616.0095825,0.008480315097,
615.0148315,0.0002803319367,615.0148315,0.01459252927,615.0148315,0.007699182723,
613.9829102,0.001404563547,613.9829102,0.01652741618,613.9829102,0.009841914289,
612.9876709,0.0001790383685,612.9876709,0.01514164545,612.9876709,0.008973864838,
611.9921265,0.001255314564,611.9921265,0.01703184471,611.9921265,0.01048994903,
610.9962769,-0.0004997774377,610.9962769,0.01668235846,610.9962769,0.01023117546,
610.0001221,-0.0002384995896,610.0001221,0.01576682553,610.0001221,0.009765052237,
609.0037231,-6.057274277E-006,609.0037231,0.01639282517,609.0037231,0.01010803413,
608.0070801,0.000612894306,608.0070801,0.01824685931,608.0070801,0.01188107207,
607.0101318,0.0009766618023,607.0101318,0.02091155015,607.0101318,0.01423582435,
606.0130005,-0.0008919939282,606.0130005,0.02057716809,606.0130005,0.01423981041,
605.0155029,0.0004690481001,605.0155029,0.01985839196,605.0155029,0.01369856484,
604.0178223,-0.0002400001395,604.0178223,0.02064231411,604.0178223,0.01552106626,
602.9828491,-2.852540092E-005,602.9828491,0.02086752094,602.9828491,0.01512365974,
601.9845581,0.001388202771,601.9845581,0.02260606736,601.9845581,0.01808342524,
600.986084,0.0008157594712,600.986084,0.02395112254,600.986084,0.01883997768,
599.9873047,0.0009035052499,599.9873047,0.02647668496,599.9873047,0.02138618194,
598.9882202,0.001036934555,598.9882202,0.02725644782,598.9882202,0.02195000462,
597.9888916,-0.0001969993027,597.9888916,0.02793341875,597.9888916,0.02311583422,
596.9893188,-0.002278964501,596.9893188,0.02721670456,596.9893188,0.02273182385,
595.989502,0.0005674285349,595.989502,0.02991008386,595.989502,0.02532807179,
594.9893799,7.29527892E-005,594.9893799,0.03193785623,594.9893799,0.02878685668,
593.9890137,0.001014827518,593.9890137,0.03276624158,593.9890137,0.03056459874,
592.9884033,0.000835859275,592.9884033,0.033597745,592.9884033,0.0320081003,
591.9875488,-0.0006600046181,591.9875488,0.03611777723,591.9875488,0.03490674496,
590.9863892,0.0006425766042,590.9863892,0.03690522164,590.9863892,0.03721451759,
589.9849854,0.0008942707209,589.9849854,0.03933168203,589.9849854,0.04036711901,
588.9832764,-0.001366852084,588.9832764,0.04169081897,588.9832764,0.04347650707,
588.0185547,-5.306299499E-005,588.0185547,0.04205977544,588.0185547,0.04566647857,
587.0162964,0.0008303609211,587.0162964,0.04500737041,587.0162964,0.0498139374,
586.013855,0.00104791054,586.013855,0.04697587714,586.013855,0.05339727551,
585.0112305,0.000660801772,585.0112305,0.04863570258,585.0112305,0.05715957284,
584.0083008,0.0007643860299,584.0083008,0.0500067547,584.0083008,0.06005380675,
583.0050659,0.000188646125,583.0050659,0.05268615112,583.0050659,0.06491327286,
582.0015869,0.0005702797207,582.0015869,0.05563804135,582.0015869,0.07039834559,
580.9979248,0.0009097827133,580.9979248,0.05803200603,580.9979248,0.07397060841,
579.9939575,0.001982750837,579.9939575,0.06149791554,579.9939575,0.07930792123,
578.9896851,0.001091117039,578.9896851,0.06269884855,578.9896851,0.08357765526,
577.9852295,0.0005136741675,577.9852295,0.06544769555,577.9852295,0.08869599551,
577.0177002,0.0009129993268,577.0177002,0.06720939279,577.0177002,0.09248371422,
576.0126953,0.0007314541726,576.0126953,0.06892132014,576.0126953,0.09610834718,
575.0075073,0.0004753193061,575.0075073,0.07105418295,575.0075073,0.09990062565,
574.0020142,0.000653568597,574.0020142,0.07351837307,574.0020142,0.1028266326,
572.9962769,0.0006612684228,572.9962769,0.07549659163,572.9962769,0.1062641591,
571.9902954,0.0006833574153,571.9902954,0.07722406834,571.9902954,0.1085252911,
570.9840698,0.0001093561004,570.9840698,0.0788230598,570.9840698,0.1106715575,
570.0148315,0.000716570823,570.0148315,0.08013644069,570.0148315,0.1122453362,
569.0081177,-0.00042385704,569.0081177,0.08141799271,569.0081177,0.1120706946,
568.0010986,-0.0007973320317,568.0010986,0.08335419744,568.0010986,0.112980023,
566.9938965,4.675257514E-005,566.9938965,0.08315314353,566.9938965,0.1130595058,
565.9863892,0.0007169079036,565.9863892,0.08387972414,565.9863892,0.1121849045,
565.0160522,0.0002589368669,565.0160522,0.08453021199,565.0160522,0.1116253138,
564.0080566,-0.0002164045436,564.0080566,0.08486334234,564.0080566,0.1104110554,
562.9998779,0.0009048800566,562.9998779,0.0866491273,562.9998779,0.1103789136,
561.991333,0.0006629017298,561.991333,0.08667680621,561.991333,0.1082454175,
560.982605,0.0006354215438,560.982605,0.08798737824,560.982605,0.1081295535,
560.0110474,0.0006191934808,560.0110474,0.08836920559,560.0110474,0.1069306731,
559.0018921,0.0007280055434,559.0018921,0.08925552666,559.0018921,0.1054838076,
557.9924316,0.001004345249,557.9924316,0.09018156677,557.9924316,0.1046762243,
556.9827881,0.000625700166,556.9827881,0.09038905799,556.9827881,0.1029917821,
556.0101929,0.0007102961536,556.0101929,0.09072588384,556.0101929,0.1020241007,
555.000061,0.001107466524,555.000061,0.09261524677,555.000061,0.1031134725,
553.9896851,-0.001035549212,553.9896851,0.09308413416,553.9896851,0.1015006974,
553.0164185,0.0002297469618,553.0164185,0.09367035329,553.0164185,0.1016129702,
552.0054932,0.001783004729,552.0054932,0.09524272382,552.0054932,0.1025009677,
550.9944458,0.0007975018816,550.9944458,0.09622883052,550.9944458,0.1022268161,
549.9830322,0.0001301741577,549.9830322,0.09735421091,549.9830322,0.102622062,
549.0089111,0.002177853836,549.0089111,0.1004486606,549.0089111,0.1060714498,
547.9970093,-0.0007180523244,547.9970093,0.09940899909,547.9970093,0.1051985249,
546.9849243,0.001105571981,546.9849243,0.1013782099,546.9849243,0.1067716256,
546.0101318,-6.885121547E-005,546.0101318,0.09990476817,546.0101318,0.1054747328,
544.9976196,0.001640771283,544.9976196,0.1033118367,544.9976196,0.1091552824,
543.9847412,-6.885121547E-005,543.9847412,0.1034239233,543.9847412,0.1092673913,
543.0092773,0.0007831349503,543.0092773,0.1060313359,543.0092773,0.1119176671,
541.9960327,0.0003288762819,541.9960327,0.1045429632,541.9960327,0.1109343916,
540.9824829,-0.0001467486436,540.9824829,0.1033455953,540.9824829,0.1096765697,
540.0062866,-0.0002369990252,540.0062866,0.1043487489,540.0062866,0.1121828556,
538.9923096,-0.0004543715913,538.9923096,0.1057928875,538.9923096,0.1134233996,
538.015686,0.0006207229453,538.015686,0.1085518822,538.015686,0.1154979765,
537.0011597,-0.000239482717,537.0011597,0.1069505438,537.0011597,0.1137913987,
535.9865723,0.001187847462,535.9865723,0.1073725894,535.9865723,0.1140546799,
535.0092163,0.0007021288038,535.0092163,0.10933391,535.0092163,0.1144097745,
533.9941406,-0.00170641148,533.9941406,0.1081216484,533.9941406,0.1131364852,
533.0163574,-0.0001184897992,533.0163574,0.1052582934,533.0163574,0.1108413935,
532.0007324,0.000672701688,532.0007324,0.1080977395,532.0007324,0.1117971987,
530.9849243,-0.0006371555501,530.9849243,0.1085048243,530.9849243,0.1108000278,
530.0064697,0.001024505706,530.0064697,0.1116058677,530.0064697,0.1116568446,
528.9902344,-0.0005980716087,528.9902344,0.1077684388,528.9902344,0.1069268659,
528.0113525,-0.0002557298285,528.0113525,0.106276758,528.0113525,0.1047195792,
526.9946289,0.0002665260399,526.9946289,0.1075498238,526.9946289,0.1042768955,
526.0153198,-0.0005271841655,526.0153198,0.1073679179,526.0153198,0.1022626534,
524.9980469,-0.000258834305,524.9980469,0.1060997397,524.9980469,0.09991437942,
524.0183716,-0.0003444573667,524.0183716,0.1068470404,524.0183716,0.09794159234,
523.0007324,0.0009125583456,523.0007324,0.107963264,523.0007324,0.09654565156,
521.9828491,-2.749002851E-005,521.9828491,0.1078696698,521.9828491,0.09555760026,
521.0024414,-0.0004260293208,521.0024414,0.1073335409,521.0024414,0.09320186079,
519.9841309,0.0006497835857,519.9841309,0.1070247889,519.9841309,0.09231556207,
519.0032349,0.0008791743312,519.0032349,0.1057679504,519.0032349,0.08948130906,
517.984436,0.0005635665148,517.984436,0.1047813222,517.984436,0.0868338123,
517.0032349,0.001230107271,517.0032349,0.1052670702,517.0032349,0.08562488109,
515.9840088,-0.001043451368,515.9840088,0.1044716761,515.9840088,0.08383233845,
515.0023193,0.0004069108982,515.0023193,0.1042715684,515.0023193,0.08231181651,
513.982605,0.001518793753,513.982605,0.1044387519,513.982605,0.08246988058,
513.0004883,-0.0008934922516,513.0004883,0.1022429317,513.0004883,0.07995669544,
512.0181885,0.001998639666,512.0181885,0.1030436978,512.0181885,0.08006954193,
510.9978333,-0.0005706693628,510.9978333,0.1015390232,510.9978333,0.07644021511,
510.0150757,0.0007615076029,510.0150757,0.1014338881,510.0150757,0.07639255375,
508.9942627,-0.0005870591849,508.9942627,0.09959880263,508.9942627,0.0751299113,
508.0111389,0.0004574906197,508.0111389,0.09996686876,508.0111389,0.07473518699,
506.9898987,0.0003163640795,506.9898987,0.09942995757,506.9898987,0.07462415099,
506.0063171,0.001155895763,506.0063171,0.099316746,506.0063171,0.07454954833,
504.9847107,7.714703679E-005,504.9847107,0.09846121073,504.9847107,0.07253405452,
504.0006104,-0.0006611418794,504.0006104,0.09752827883,504.0006104,0.07185865939,
503.0164185,0.0008525882149,503.0164185,0.09808844328,503.0164185,0.07164878398,
501.9941406,0.0005372848245,501.9941406,0.09816937149,501.9941406,0.07227104157,
501.0094604,0.0003814678057,501.0094604,0.09798564017,501.0094604,0.07194461673,
499.9867859,0.000157078568,499.9867859,0.09816372395,499.9867859,0.07221256196,
499.001709,0.0005207753857,499.001709,0.09692036361,499.001709,0.0701592043,
498.016449,-0.0004312531382,498.016449,0.09767930955,498.016449,0.0721552819,
496.9931335,0.0004792064719,496.9931335,0.09756476432,496.9931335,0.07201351225,
496.0073853,0.0006800388219,496.0073853,0.09635523707,496.0073853,0.0697042644,
494.9835815,-0.0001956021006,494.9835815,0.09622256458,494.9835815,0.07010994852,
493.997467,0.0007561139064,493.997467,0.09745738655,493.997467,0.07241476327,
493.0112305,-0.001027698512,493.0112305,0.0984389931,493.0112305,0.07314217091,
491.9867859,-0.0005491600023,491.9867859,0.09683455527,491.9867859,0.07294628024,
491.0000916,0.001833771006,491.0000916,0.09533225,491.0000916,0.07271644473,
490.0131836,0.001724213827,490.0131836,0.09710613638,490.0131836,0.07450898737,
488.9881287,0.001696042717,488.9881287,0.09881264716,488.9881287,0.07615336031,
488.000824,-0.0009485642076,488.000824,0.09653301537,488.000824,0.07394047081,
487.0133362,-0.0003649423306,487.0133362,0.09611147642,487.0133362,0.07446494699,
485.9876099,0.0009424687014,485.9876099,0.09821655601,485.9876099,0.07697696239,
484.9996948,0.0001788311929,484.9996948,0.0996010825,484.9996948,0.07782962918,
484.0116272,-0.00273785321,484.0116272,0.09475620836,484.0116272,0.0734596923,
482.98526,-0.0007801749161,482.98526,0.09567473829,482.98526,0.07500711083,
481.9967957,-0.0008821773226,481.9967957,0.09681103379,481.9967957,0.07650883496,
481.0081177,-0.0005522106658,481.0081177,0.09816077352,481.0081177,0.07858376205,
479.9811707,0.0006911095697,479.9811707,0.09969489276,479.9811707,0.08023862541,
478.9920349,0.001351276645,478.9920349,0.1013887376,478.9920349,0.0824681893,
478.0027466,0.0004060558567,478.0027466,0.1007969156,478.0027466,0.08229470253,
477.0132446,0.001471986412,477.0132446,0.1033190265,477.0132446,0.08462827653,
475.9855042,-0.002000306267,475.9855042,0.1035002694,475.9855042,0.08551064134,
474.995575,-0.0003540792095,474.995575,0.1061242297,474.995575,0.08863462508,
474.0054626,0.001004033838,474.0054626,0.1074886844,474.0054626,0.08991393447,
473.0152283,0.0008450147579,473.0152283,0.1082727537,473.0152283,0.09153424948,
471.9866333,0.001167082461,471.9866333,0.1106492504,471.9866333,0.09380835295,
470.9959717,0.0006062840694,470.9959717,0.1122204959,470.9959717,0.09664382041,
470.005127,0.0008047893061,470.005127,0.1140418202,470.005127,0.09957379848,
469.0140381,0.001237999066,469.0140381,0.1171505302,469.0140381,0.1027528644,
467.9847107,0.0007620780962,467.9847107,0.1194056123,467.9847107,0.1068314761,
466.9932556,-0.0005368536804,466.9932556,0.1209030747,466.9932556,0.1097898111,
466.0016174,-0.0001265639439,466.0016174,0.123802036,466.0016174,0.1132662296,
465.0098267,0.000558175263,465.0098267,0.125704363,465.0098267,0.1171440184,
464.0177917,0.0009134921711,464.0177917,0.1287465394,464.0177917,0.1215197518,
462.9874268,0.0004403622879,462.9874268,0.1314670593,462.9874268,0.1263011992,
461.9950562,0.001264452934,461.9950562,0.1358049363,461.9950562,0.1324210912,
461.0024719,0.0007933784509,461.0024719,0.1392085105,461.0024719,0.1383123994,
460.009613,-0.001825777115,460.009613,0.1396098137,460.009613,0.1414153725,
459.0166626,0.001106661977,459.0166626,0.1435675621,459.0166626,0.1477579474,
457.985321,-0.000256557687,457.985321,0.146976769,457.985321,0.1539273113,
456.9920044,5.073679404E-006,456.9920044,0.1520116329,456.9920044,0.1616701782,
455.9984741,-0.0006896238774,455.9984741,0.1560075283,455.9984741,0.1685360372,
455.0047302,0.0007023361977,455.0047302,0.1620769948,455.0047302,0.1774739623,
454.0108337,0.001746019116,454.0108337,0.1683777869,454.0108337,0.1879737079,
453.0167542,0.0003464147158,453.0167542,0.1723645627,453.0167542,0.1947221607,
451.9842529,-0.0003135211882,451.9842529,0.1773542464,451.9842529,0.2041086704,
450.9897461,0.0001787794026,450.9897461,0.1855394393,450.9897461,0.2150387466,
449.9951477,-0.0006124958745,449.9951477,0.1931114197,449.9951477,0.226930812,
449.0003357,-0.0001678639383,449.0003357,0.2016899139,449.0003357,0.2385322601,
448.0053406,-0.000661348633,448.0053406,0.2091928273,448.0053406,0.2523986697,
447.0100708,-0.001081772265,447.0100708,0.219616726,447.0100708,0.2669202685,
446.01474,0.001560176606,446.01474,0.2291827202,446.01474,0.2823783755,
444.980896,0.001193687785,444.980896,0.2418528646,444.980896,0.3007586002,
443.9851379,0.001946242061,443.9851379,0.2555125952,443.9851379,0.3212638497,
442.9892273,-0.001083631418,442.9892273,0.2679770291,442.9892273,0.3419122696,
441.993103,0.0005711350823,441.993103,0.2859578729,441.993103,0.3650146723,
440.9967957,-2.334851524E-005,440.9967957,0.2995991111,440.9967957,0.3853211701,
440.0002747,0.0007979427464,440.0002747,0.3177757859,440.0002747,0.4142106771,
439.0036621,0.0004937188351,439.0036621,0.3369860053,439.0036621,0.4423077703,
438.0068359,0.00196998287,438.0068359,0.3576183319,438.0068359,0.4743549526,
437.0097656,-2.816302003E-005,437.0097656,0.3804180026,437.0097656,0.5100418329,
436.0126038,-0.000546367839,436.0126038,0.4046049118,436.0126038,0.5467704535,
435.0152588,0.0002774567693,435.0152588,0.4294370413,435.0152588,0.5850891471,
434.0177612,-0.0004247362958,434.0177612,0.4551278651,434.0177612,0.6293693185,
432.9816284,-0.0002292373974,432.9816284,0.483530432,432.9816284,0.6778075099,
431.9837646,0.0002685463987,431.9837646,0.5122373104,431.9837646,0.7190904021,
430.9856262,0.0003487463109,430.9856262,0.5439224839,430.9856262,0.7753143907,
429.9873962,0.002209750703,429.9873962,0.5707272887,429.9873962,0.817961812,
428.9889832,0.0008699662867,428.9889832,0.6037738919,428.9889832,0.8695315719,
427.990387,0.0009485391784,427.990387,0.6338359714,427.990387,0.9240454435,
426.9915771,0.001474168152,426.9915771,0.6658363342,426.9915771,0.9732300639,
425.9926453,-7.869262845E-006,425.9926453,0.6964972019,425.9926453,1.02453649,
424.9935608,0.0009975733701,424.9935608,0.7227615118,424.9935608,1.063334465,
423.9942627,0.001717014937,423.9942627,0.7488382459,423.9942627,1.101577878,
422.9947205,3.028668743E-006,422.9947205,0.7750910521,422.9947205,1.138615012,
421.9950562,-0.0002899295941,421.9950562,0.7974710464,421.9950562,1.17287302,
420.9953003,-0.0002172842214,420.9953003,0.8140085936,420.9953003,1.193270445,
419.9952698,0.001577505027,419.9952698,0.8330719471,419.9952698,1.207821488,
418.9951172,-0.0007257018588,418.9951172,0.8468750715,418.9951172,1.210358739,
417.9947815,-0.001638541464,417.9947815,0.8568743467,417.9947815,1.211794615,
416.9942932,0.0001526246051,416.9942932,0.8639093041,416.9942932,1.19808507,
415.9936523,0.0001703371818,415.9936523,0.8685404658,415.9936523,1.177038074,
414.9927673,-0.0005088787293,414.9927673,0.8696604371,414.9927673,1.155421734,
413.9917297,0.002952888142,413.9917297,0.870146215,413.9917297,1.13051784,
412.9906311,0.001624453696,412.9906311,0.8675643206,412.9906311,1.090298772,
411.9892578,0.001236441429,411.9892578,0.8624453545,411.9892578,1.05235219,
410.9877014,-0.0001186450681,410.9877014,0.8596675396,410.9877014,1.013302803,
409.9860535,0.0003414406674,409.9860535,0.8528439403,409.9860535,0.9756912589,
408.9841919,-0.002680486534,408.9841919,0.8501871824,408.9841919,0.9381626248,
407.9822083,-0.0003769948962,407.9822083,0.8474553823,407.9822083,0.8996226192,
407.0185547,0.0007627004525,407.0185547,0.8439147472,407.0185547,0.8638992906,
406.0162354,0.0006248187856,406.0162354,0.8438165784,406.0162354,0.8243764043,
405.0136719,0.001164928195,405.0136719,0.8410038948,405.0136719,0.7917259932,
404.0110168,-4.757580245E-005,404.0110168,0.8394666314,404.0110168,0.7630002499,
403.0081787,0.0005520842969,403.0081787,0.8382333517,403.0081787,0.7337258458,
402.0052185,0.00179857458,402.0052185,0.8408929706,402.0052185,0.7025673985,
401.0020142,-1.221800539E-005,401.0020142,0.8389838934,401.0020142,0.6748651862,
399.9986877,0.0008218541625,399.9986877,0.8417587876,399.9986877,0.6523558497,
398.9951782,0.0008180158329,398.9951782,0.8418165445,398.9951782,0.6311283112,
397.9915466,0.0001477045589,397.9915466,0.8411099911,397.9915466,0.6079865098,
396.9877319,-0.0004248914483,396.9877319,0.8408824801,396.9877319,0.5871002674,
395.9837341,-0.0001028586557,395.9837341,0.8427765369,395.9837341,0.5688596368,
395.0181885,-0.001063696807,395.0181885,0.8399522901,395.0181885,0.5526403785,
394.0138855,0.0003849136701,394.0138855,0.8347142339,394.0138855,0.5322523713,
393.0094299,-0.002918907441,393.0094299,0.8325083852,393.0094299,0.517002821,
392.0048218,0.0004602374393,392.0048218,0.8272172213,392.0048218,0.505319953,
391.000061,-0.0006424802123,391.000061,0.8154149055,391.000061,0.4869009554,
389.9951172,0.00118457689,389.9951172,0.8068411946,389.9951172,0.4740243256,
388.9900208,0.0003174779704,388.9900208,0.7966518998,388.9900208,0.460906297,
387.9847717,-3.204564564E-005,387.9847717,0.7853490114,387.9847717,0.448166281,
387.0180664,0.0009785817238,387.0180664,0.7712497115,387.0180664,0.4364755154,
386.0124512,0.001610033447,386.0124512,0.755879879,386.0124512,0.4286849201,
385.0067444,-0.000459750212,385.0067444,0.7429166436,385.0067444,0.4191936851,
384.000885,-0.0002496243105,384.000885,0.7282478213,384.000885,0.4104430377,
382.9948425,-0.00136349746,382.9948425,0.7140610218,382.9948425,0.4019064009,
381.9886475,0.0009550249088,381.9886475,0.7004930377,381.9886475,0.395334065,
380.9822693,0.001132874284,380.9822693,0.6844920516,380.9822693,0.3909791708,
380.0144653,0.0006360696279,380.0144653,0.6745278835,380.0144653,0.3873238862,
379.007843,0.001121169422,379.007843,0.6628317237,379.007843,0.3858900964,
378.0010376,-1.661847455E-005,378.0010376,0.6502733231,378.0010376,0.3821736276,
376.9940796,0.0008074605139,376.9940796,0.6386697292,376.9940796,0.3780272305,
375.9869385,-3.639414717E-005,375.9869385,0.6269467473,375.9869385,0.3785349429,
375.0184326,-2.060474253E-005,375.0184326,0.6196523905,375.0184326,0.3788853884,
374.0110168,0.0002144146274,374.0110168,0.6102075577,374.0110168,0.3782562315,
373.0034485,-5.663480624E-005,373.0034485,0.6047335267,373.0034485,0.3813206553,
371.9957275,0.0002702559286,371.9957275,0.5967665911,371.9957275,0.3836787343,
370.987854,-0.0003121760965,370.987854,0.590493679,370.987854,0.3847754896,
370.0186157,-0.000239741421,370.0186157,0.5837063789,370.0186157,0.386449784,
369.010437,0.0009817988612,369.010437,0.5773419738,369.010437,0.3898354769,
368.0021057,-5.249357127E-005,368.0021057,0.5697505474,368.0021057,0.3919965029,
366.9936523,0.0005582789308,366.9936523,0.5627842546,366.9936523,0.39542225,
365.9850159,0.0003457670682,365.9850159,0.5550684333,365.9850159,0.3967806697,
365.0150757,-0.001282772515,365.0150757,0.5494180918,365.0150757,0.40022403,
364.0061646,0.0009557772428,364.0061646,0.5436758995,364.0061646,0.4039998651,
362.9970703,-6.13971788E-005,362.9970703,0.5385785699,362.9970703,0.4079062045,
361.987854,-0.0008902372792,361.987854,0.5254651904,361.987854,0.4075387418,
361.0173645,0.001415600767,361.0173645,0.513697207,361.0173645,0.4050003886,
360.007843,0.0002487318125,360.007843,0.5082580447,360.007843,0.4076034427,
358.9981995,8.809888823E-005,358.9981995,0.4986998141,358.9981995,0.4070319235,
357.9884033,-0.0002479685354,357.9884033,0.4883025885,357.9884033,0.4060439169,
357.0173035,-0.0001283754245,357.0173035,0.4752117097,357.0173035,0.4016081393,
356.0072327,0.001003956073,356.0072327,0.4687255621,356.0072327,0.4004336596,
354.9970093,0.0007356547867,354.9970093,0.459775418,354.9970093,0.3974680603,
353.9866333,-0.000466007943,353.9866333,0.4476241767,353.9866333,0.3928593993,
353.0149841,0.001538822311,353.0149841,0.4367516041,353.0149841,0.3893417418,
352.004364,-0.0001130034361,352.004364,0.4274711013,352.004364,0.3845985234,
350.9935608,-0.0004755753907,350.9935608,0.4181545079,350.9935608,0.3781855702,
349.9826355,0.001819343772,349.9826355,0.4066084921,349.9826355,0.3733088076,
349.010437,0.0005726384697,349.010437,0.3962115347,349.010437,0.3656349182,
347.9992065,-4.571221507E-005,347.9992065,0.3858691454,347.9992065,0.3591582477,
346.987854,0.001017370261,346.987854,0.3766139448,346.987854,0.3524054289,
346.0152893,-5.068176688E-005,346.0152893,0.3641007543,346.0152893,0.3447833061,
345.0036316,-0.0009197375621,345.0036316,0.3576698303,345.0036316,0.3388142884,
343.9918823,-0.0001637755195,343.9918823,0.3457655907,343.9918823,0.3308205605,
343.0188599,-0.0008324709488,343.0188599,0.3397305906,343.0188599,0.3261504769,
342.0068054,0.001788463211,342.0068054,0.3289043009,342.0068054,0.3186618984,
340.9945984,-0.0008041533292,340.9945984,0.3216482103,340.9945984,0.3119426072,
339.9822998,-0.000137122217,339.9822998,0.3134286702,339.9822998,0.3039013743,
339.0087891,0.0004935892648,339.0087891,0.3062759936,339.0087891,0.2976216972,
337.9961853,0.001381009468,337.9961853,0.297103554,337.9961853,0.2899583578,
336.9834595,0.000240495443,336.9834595,0.2899057865,336.9834595,0.2811692059,
336.009491,0.003178544575,336.009491,0.2871660888,336.009491,0.2777859867,
334.9964905,0.0009279672522,334.9964905,0.2787388861,334.9964905,0.2708285749,
333.9833679,0.001549992827,333.9833679,0.2724091113,333.9833679,0.2646920979,
333.0090637,0.0009498622385,333.0090637,0.2646409273,333.0090637,0.2562190592,
331.995636,0.001029850799,331.995636,0.2588980496,331.995636,0.2499621063,
330.9821167,-0.0005337511539,330.9821167,0.2517981827,330.9821167,0.2428775579,
330.0074158,-9.053968097E-005,330.0074158,0.2475821078,330.0074158,0.2364181131,
328.9935608,-0.0009387488826,328.9935608,0.2414415479,328.9935608,0.2297527194,
328.0186157,0.001486583962,328.0186157,0.2388601005,328.0186157,0.2268200964,
327.0045471,0.0005376476911,327.0045471,0.2317805886,327.0045471,0.2177870721,
325.9903564,0.0005199460429,325.9903564,0.2272581905,325.9903564,0.2138445377,
325.0150146,0.0001661420392,325.0150146,0.2246046066,325.0150146,0.2084923387,
324.0005493,0.001648020931,324.0005493,0.2191547453,324.0005493,0.2037214339,
322.9859619,0.001216089469,322.9859619,0.2138677984,322.9859619,0.1982594877,
322.0102844,0.001463311259,322.0102844,0.2119704634,322.0102844,0.1946818829,
320.9953918,0.001116160536,320.9953918,0.2094438672,320.9953918,0.1917722821,
320.0194397,0.001940703718,320.0194397,0.2092507035,320.0194397,0.1908942461,
319.0043335,0.001100563328,319.0043335,0.2033581883,319.0043335,0.1868208349,
317.9890747,-1.232154591E-005,317.9890747,0.2025762051,317.9890747,0.1853621453,
317.0127563,0.0009845489403,317.0127563,0.2004627287,317.0127563,0.1830179393,
315.9972839,-1.615254405E-005,315.9972839,0.2009389102,315.9972839,0.1837047338,
314.9816589,-0.002194597619,314.9816589,0.2000552863,314.9816589,0.1828217953,
314.0049438,0.00127823872,314.0049438,0.1994441897,314.0049438,0.1840213388,
312.9890442,-0.0001385196083,312.9890442,0.2001021951,312.9890442,0.1851590127,
312.0121155,-0.0009465495241,312.0121155,0.2018211484,312.0121155,0.1878872663,
310.9960022,0.0003351972846,310.9960022,0.2028581649,310.9960022,0.1913690567,
310.0188293,-0.0005216512363,310.0188293,0.2066597939,310.0188293,0.1953117996,
309.0024414,-0.0003724946,309.0024414,0.2112296969,309.0024414,0.2008080631,
307.9859619,0.0003004329046,307.9859619,0.2152786106,307.9859619,0.2082500458,
307.0084229,0.0006474762922,307.0084229,0.2256915867,307.0084229,0.2220631689,
305.9916382,0.001732348464,305.9916382,0.2349115312,305.9916382,0.2334170341,
305.0138855,-0.001703678281,305.0138855,0.2433674037,305.0138855,0.2474856675,
303.9969177,3.080441047E-006,303.9969177,0.2556741238,303.9969177,0.2649000585,
303.0189209,0.0001165542708,303.0189209,0.2750990391,303.0189209,0.2868011892,
302.0016479,1.019919091E-005,302.0016479,0.2899210751,302.0016479,0.3115677238,
300.9843445,-0.0009779054672,300.9843445,0.3090623915,300.9843445,0.3390961885,
300.0059509,0.0004545106203,300.0059509,0.332348913,300.0059509,0.3689100146,
298.9883423,0.001365220989,298.9883423,0.3605940938,298.9883423,0.4051098228,
298.0097656,0.0005286282976,298.0097656,0.3809440732,298.0097656,0.4379439354,
296.9919128,4.561347305E-005,296.9919128,0.4123930633,296.9919128,0.4733128846,
296.013092,0.000629770162,296.013092,0.4408419132,296.013092,0.5214361548,
294.9950256,-0.0002182673925,294.9950256,0.4738417268,294.9950256,0.5801181793,
294.0159912,-0.0007061125943,294.0159912,0.5312956572,294.0159912,0.6461484432,
292.9976807,0.001831743401,292.9976807,0.5737721324,292.9976807,0.7221252322,
292.0184021,-0.001410201774,292.0184021,0.616884768,292.0184021,0.8286773562,
290.9998779,0.0004762781318,290.9998779,0.6440677643,290.9998779,0.8848033547,
289.9812012,0.0008874228224,289.9812012,0.6721565723,289.9812012,0.9531843662,
289.0015869,0.0005662621697,289.0015869,0.7016272545,289.0015869,1.026342511,
287.9826965,0.0003550676047,287.9826965,0.7427724004,287.9826965,1.129221201,
287.0028992,0.0001182632041,287.0028992,0.7914361954,287.0028992,1.208144546,
285.9837341,-4.555691339E-005,285.9837341,0.829172492,285.9837341,1.284184217,
285.0036926,0.001066438272,285.0036926,0.8744397759,285.0036926,1.35514009,
283.9843445,-0.0008465257124,283.9843445,0.8917916417,283.9843445,1.393445611,
283.0040894,-6.548656529E-005,283.0040894,0.9061362147,283.0040894,1.42392695,
281.9844971,0.001264426974,281.9844971,0.9097481966,281.9844971,1.439072967,
281.0039978,-7.723685849E-005,281.0039978,0.9133890867,281.0039978,1.459546804,
279.9841919,0.000105265106,279.9841919,0.9202007055,279.9841919,1.480487585,
279.0035095,-5.02676412E-005,279.0035095,0.9255230427,279.0035095,1.490276933,
277.98349,-0.001025994075,277.98349,0.9246939421,277.98349,1.48728323,
277.0025635,0.001103859162,277.0025635,0.9211369157,277.0025635,1.480032444,
275.9822693,-0.0001463863591,275.9822693,0.9135053158,275.9822693,1.457425833,
275.0011902,-0.0007646709564,275.0011902,0.897767961,275.0011902,1.436228633,
273.9807129,-0.0006173038273,273.9807129,0.8853616714,273.9807129,1.401878834,
272.9993591,0.0006654942408,272.9993591,0.8660157919,272.9993591,1.370336771,
272.0179443,-0.0007961951196,272.0179443,0.853513658,272.0179443,1.332384586,
270.9971313,6.971650873E-005,270.9971313,0.8370175362,270.9971313,1.299761415,
270.0154724,0.002353628166,270.0154724,0.8253717422,270.0154724,1.274371386,
268.9944763,-0.002590588061,268.9944763,0.8075217605,268.9944763,1.245347142,
268.0126038,0.0008838951471,268.0126038,0.7879009247,268.0126038,1.206971049,
266.9913635,0.001253055991,266.9913635,0.7661429048,266.9913635,1.16633153,
266.0093079,0.0003843436716,266.0093079,0.7500744462,266.0093079,1.14010179,
264.9878845,0.001468843548,264.9878845,0.7326092124,264.9878845,1.114710808,
264.0056152,0.001121922047,264.0056152,0.7105834484,264.0056152,1.067331672,
262.9839478,-0.0001187485832,262.9839478,0.6889192462,262.9839478,1.022860289,
262.0014954,9.773052443E-005,262.0014954,0.672175467,262.0014954,0.9924889803,
261.0189209,0.004892751109,261.0189209,0.663646698,261.0189209,0.9716019034,
259.9969482,-0.0004709727073,259.9969482,0.6481500864,259.9969482,0.9496561289,
259.0141602,0.001194388606,259.0141602,0.6390962005,259.0141602,0.9354659915,
257.9919739,0.001201890409,257.9919739,0.6226966381,257.9919739,0.8958759308,
257.0090332,-0.0002440878452,257.0090332,0.6002732515,257.0090332,0.8603120446,
255.9866333,-5.171708472E-005,255.9866333,0.5884153247,255.9866333,0.8344628811,
255.0034637,0.000223323892,255.0034637,0.5821303725,255.0034637,0.8249216676,
253.980896,0.0005311941495,253.980896,0.5829161406,253.980896,0.822938323,
252.9975433,0.00411218591,252.9975433,0.5851206183,252.9975433,0.8222451806,
252.0140686,-0.0002067278983,252.0140686,0.5788103342,252.0140686,0.8134642243,
250.9911652,-0.001813558396,250.9911652,0.5813802481,250.9911652,0.8143311143,
250.0075226,0.0006323625566,250.0075226,0.5920821428,250.0075226,0.8259003162,
248.9844513,-0.002598770894,248.9844513,0.605450213,248.9844513,0.8583973646,
248.0006104,-0.000306226575,248.0006104,0.6297819614,248.0006104,0.897135973,
247.0166779,0.0001954312611,247.0166779,0.6463984251,247.0166779,0.9273816347,
245.9932861,0.002127723536,245.9932861,0.6976391673,245.9932861,1.005478859,
245.00914,-0.0001656386012,245.00914,0.7410513759,245.00914,1.10587585,
243.9855804,0.001108011464,243.9855804,0.8299366832,243.9855804,1.259949684,
243.0012665,0.0006658053608,243.0012665,0.8805327415,243.0012665,1.396448493,
242.0168457,-0.0001420907211,242.0168457,0.9792702794,242.0168457,1.576637149,
240.9929657,0.0009382660501,240.9929657,1.117794156,240.9929657,1.826838851,
240.0083923,-0.003422581591,240.0083923,1.265796065,240.0083923,2.114185333,
238.984314,0.0002620968444,238.984314,1.440068245,238.984314,2.479082584,
237.9995117,0.0005513585638,237.9995117,1.653809905,237.9995117,2.592575312,
237.0146637,-0.0003817020042,237.0146637,2.004639149,237.0146637,3.214707851,
235.9903259,-0.0009934018599,235.9903259,2.27379632,235.9903259,2.992020369,
235.0052643,-0.0004698349512,235.0052643,2.544514418,235.0052643,2.618435383,
233.9807129,-0.0006654323661,233.9807129,2.754535437,233.9807129,2.516078472,
232.9954987,0.0007860134938,232.9954987,2.681676149,232.9954987,2.696972132,
232.0101929,-0.0001865977392,232.0101929,2.692731857,232.0101929,2.921204567,
230.9853668,0.0007680683048,230.9853668,2.654684544,230.9853668,2.7406919,
229.9998932,-0.004890078213,229.9998932,10,229.9998932,3.265807152,
229.0142975,-0.000144833728,229.0142975,2.542923689,229.0142975,2.557735443,
227.9891815,0.00356145855,227.9891815,3.749869108,227.9891815,3.377661228,
227.0034637,-0.002515495522,227.0034637,3.402568102,227.0034637,3.350810289,
226.0175934,-0.005355678499,226.0175934,3.244564533,226.0175934,3.749554396,
224.9922485,0.0005556610995,224.9922485,3.744852543,224.9922485,3.706409693,
224.0062103,0.0155469561,224.0062103,2.79031539,224.0062103,3.60415554,
222.9806976,0.01001120359,222.9806976,3.001891375,222.9806976,3.240991592,
221.9944916,0.01490071416,221.9944916,2.785196304,221.9944916,2.779376268,
221.0082397,0.005611652043,221.0082397,2.723027229,221.0082397,3.042374134,
219.9824066,-0.004917567596,219.9824066,2.838707685,219.9824066,2.878062248,
218.9959869,0.02127484232,218.9959869,2.377943993,218.9959869,2.50576663,
218.0094452,0.01687842049,218.0094452,2.262619019,218.0094452,2.145543575,
216.9833832,0.02579363063,216.9833832,2.199226618,216.9833832,2.045024395,
215.9966736,0.01005451567,215.9966736,1.769925117,215.9966736,2.252892494,
215.0099182,0.02359372936,215.0099182,1.583490968,215.0099182,1.751870513,
213.9835663,0.04592173547,213.9835663,1.619272351,213.9835663,2.223326445,
212.9966431,-0.04574152827,212.9966431,10,212.9966431,1.643299937,
212.0096436,0.02085092664,212.0096436,1.219897985,212.0096436,1.089566827,
210.9830627,-0.02650675364,210.9830627,10,210.9830627,10,
209.9958954,-0.04554946348,209.9958954,0.7578017116,209.9958954,0.783041656,
209.0086212,0.1086363792,209.0086212,0.4912744164,209.0086212,10,
207.9817963,0.1133312136,207.9817963,10,207.9817963,0.8289080262,
206.9943542,-0.2002089173,206.9943542,0.9176691175,206.9943542,0.3077854514,
206.0068665,-0.142004326,206.0068665,0.07408811152,206.0068665,0.08931774646,
205.0192871,0.3755938113,205.0192871,1.206936359,205.0192871,0.6357420683,
203.9921265,-0.166390419,203.9921265,0.1935133934,203.9921265,0.4315106869,
203.0043793,0.02612331137,203.0043793,0.5665736794,203.0043793,0.463427335,
202.0165863,-0.01026908495,202.0165863,0.6552080512,202.0165863,0.1942372769,
200.989151,-0.4019726217,200.989151,-0.08004594594,200.989151,0.110850513,
200.0011902,0.2275889665,200.0011902,10,200.0011902,0.3651422858,

blank,
blank
Collection Time: 09/06/2021 10:30:07
Operator Name  :
Scan Version 5.0.0.999
Parameter List :
Instrument  Cary 60
Instrument Version  2.00
Start (nm)  800.0
Stop (nm)  200.0
X Mode  Nanometers
Y Mode  Abs
UV-Vis Scan Rate (nm/min)  4800.000
UV-Vis Data Interval (nm)  1.00
UV-Vis Ave. Time (sec)  0.0125
Beam Mode  Dual Beam
Baseline Correction  On
Baseline Type  Baseline correction
Baseline File Name
Baseline Std Ref File Name
Cycle Mode  Off
Method Log     :
Method Name    :
Date/Time stamp: 09/06/2021 10:29:19
Method Modifications:
Common Interval nm Changed: 09/06/2021 10:29:43, Old:     5.00, New:     1.00
Baseline Correction Changed: 09/06/2021 10:29:43, Old:0, New:1
Storage Changed: 09/06/2021 10:29:43, Old:1, New:0
End Method Modifications
<Current Wavelength> , 222.0

bm3-a82f-f87v-kpi,
bm3-a82f-f87v-kpi
Collection Time: 09/06/2021 10:30:39
Operator Name  :
Scan Version 5.0.0.999
Parameter List :
Instrument  Cary 60
Instrument Version  2.00
Start (nm)  800.0
Stop (nm)  200.0
X Mode  Nanometers
Y Mode  Abs
UV-Vis Scan Rate (nm/min)  4800.000
UV-Vis Data Interval (nm)  1.00
UV-Vis Ave. Time (sec)  0.0125
Beam Mode  Dual Beam
Baseline Correction  On
Baseline Type  Baseline correction
Baseline File Name
Baseline Std Ref File Name
Cycle Mode  Off
Method Log     :
Method Name    :
Date/Time stamp: 09/06/2021 10:29:19
Method Modifications:
Common Interval nm Changed: 09/06/2021 10:29:43, Old:     5.00, New:     1.00
Baseline Correction Changed: 09/06/2021 10:29:43, Old:0, New:1
Storage Changed: 09/06/2021 10:29:43, Old:1, New:0
End Method Modifications
<Current Wavelength> , 229.0

bm3-a82f-f87v-kpi_bsa,
bm3-a82f-f87v-kpi_bsa
Collection Time: 09/06/2021 10:31:01
Operator Name  :
Scan Version 5.0.0.999
Parameter List :
Instrument  Cary 60
Instrument Version  2.00
Start (nm)  800.0
Stop (nm)  200.0
X Mode  Nanometers
Y Mode  Abs
UV-Vis Scan Rate (nm/min)  4800.000
UV-Vis Data Interval (nm)  1.00
UV-Vis Ave. Time (sec)  0.0125
Beam Mode  Dual Beam
Baseline Correction  On
Baseline Type  Baseline correction
Baseline File Name
Baseline Std Ref File Name
Cycle Mode  Off
Method Log     :
Method Name    :
Date/Time stamp: 09/06/2021 10:29:19
Method Modifications:
Common Interval nm Changed: 09/06/2021 10:29:43, Old:     5.00, New:     1.00
Baseline Correction Changed: 09/06/2021 10:29:43, Old:0, New:1
Storage Changed: 09/06/2021 10:29:43, Old:1, New:0
End Method Modifications
<Current Wavelength> , 213.0

