baseline,,bm3-a82f-f87v-heme-10in1000-tube-dm,,bm3-a82f-f87v-heme-10in1000-tube-60,,bm3-a82f-f87v-heme-10in1000-tube-65,,
Wavelength (nm),Abs,Wavelength (nm),Abs,Wavelength (nm),Abs,Wavelength (nm),Abs,
799.9969482,0.0003675809421,799.9969482,0.009927213192,799.9969482,0.007102367468,799.9969482,0.006571989041,
798.9923096,0.0003509224916,798.9923096,0.009023232386,798.9923096,0.006165275816,798.9923096,0.006890206598,
797.9871826,0.0001909768907,797.9871826,0.01025669929,797.9871826,0.006613041274,797.9871826,0.007323872298,
797.0163574,0.0008986804169,797.0163574,0.009669780731,797.0163574,0.007131470367,797.0163574,0.005829223432,
796.010437,0.001034028362,796.010437,0.01005035639,796.010437,0.005991311744,796.010437,0.005829196889,
795.0041504,0.0003192136064,795.0041504,0.009468585253,795.0041504,0.005584119353,795.0041504,0.004650843795,
793.9974365,0.0007688722108,793.9974365,0.0106380824,793.9974365,0.006321842782,793.9974365,0.006010077894,
792.9903564,0.0002663447231,792.9903564,0.009660516866,792.9903564,0.007464898285,792.9903564,0.006245023105,
791.9828491,0.0002275454899,791.9828491,0.01014852058,791.9828491,0.005461003166,791.9828491,0.006719001569,
791.0097046,6.948349619E-005,791.0097046,0.009983866476,791.0097046,0.005567049608,791.0097046,0.006437321194,
790.0013428,-0.000125528808,790.0013428,0.00972341001,790.0013428,0.006836873945,790.0013428,0.007722607814,
788.9926758,0.0006859241985,788.9926758,0.01041445602,788.9926758,0.005470099393,788.9926758,0.0055173398,
787.9835815,-0.0010213973,787.9835815,0.009770797566,787.9835815,0.006369596347,787.9835815,0.005718155298,
787.0089111,-0.001173893921,787.0089111,0.009583686478,787.0089111,0.006301146001,787.0089111,0.006959328428,
785.9989624,0.0007810862735,785.9989624,0.01016685739,785.9989624,0.006489580497,785.9989624,0.006204241421,
784.9887695,0.001116627711,784.9887695,0.01107781846,784.9887695,0.007523312699,784.9887695,0.005919510033,
784.0128784,-3.748126619E-005,784.0128784,0.01052763406,784.0128784,0.005627569743,784.0128784,0.005706352182,
783.001709,5.972303552E-005,783.001709,0.009874670766,783.001709,0.006423686165,783.001709,0.006786623504,
781.9902954,-0.0008569631609,781.9902954,0.01048870292,781.9902954,0.006396101788,781.9902954,0.006524370983,
781.0134277,0.0008069418254,781.0134277,0.01103275735,781.0134277,0.007988089696,781.0134277,0.007515674923,
780.0010986,-0.0003699082299,780.0010986,0.009711497463,780.0010986,0.005907360464,780.0010986,0.006090189796,
778.9884644,0.001467415015,778.9884644,0.009526792914,778.9884644,0.006376688834,778.9884644,0.007123102434,
778.010376,-0.0002130410285,778.010376,0.009783796966,778.010376,0.006118647754,778.010376,0.007921466604,
776.9969482,-0.001205491601,776.9969482,0.0105265202,776.9969482,0.006083758548,776.9969482,0.007472877856,
775.9831543,-0.0006233524764,775.9831543,0.01037031226,775.9831543,0.006507606246,775.9831543,0.006091869902,
775.0039063,0.0002264836075,775.0039063,0.01023788098,775.0039063,0.006567074452,775.0039063,0.00666918559,
773.9893188,-0.0002737872128,773.9893188,0.01077137887,773.9893188,0.006714374758,773.9893188,0.007111971732,
773.0093384,0.001601589262,773.0093384,0.0125586167,773.0093384,0.007654418238,773.0093384,0.006789857987,
771.9940186,-0.0007937662886,771.9940186,0.01242247969,771.9940186,0.005507691763,771.9940186,0.005697172601,
771.0132446,-0.00014338459,771.0132446,0.01095934678,771.0132446,0.005547096953,771.0132446,0.006547128316,
769.9971313,-0.001080016373,769.9971313,0.01056025643,769.9971313,0.006601424422,769.9971313,0.006890995894,
769.015686,0.0004563763505,769.015686,0.01070398185,769.015686,0.006868667435,769.015686,0.007954922505,
767.9988403,-0.0007891153218,767.9988403,0.01095069293,767.9988403,0.005398829002,767.9988403,0.006878766231,
767.0166626,0.000300147949,767.0166626,0.01243254822,767.0166626,0.007719287649,767.0166626,0.008557716385,
765.9989624,0.0004884062218,765.9989624,0.01156013459,765.9989624,0.006889864802,765.9989624,0.008252653293,
765.0160522,-0.0004693694937,765.0160522,0.01110397559,765.0160522,0.006169555709,765.0160522,0.007333402522,
763.9975586,-0.0003684598487,763.9975586,0.0109193949,763.9975586,0.00707418751,763.9975586,0.00704808766,
763.0139771,0.001095606596,763.0139771,0.01255419292,763.0139771,0.006561923772,763.0139771,0.007234214339,
761.994751,0.000554080063,761.994751,0.01180821005,761.994751,0.007935492322,761.994751,0.008236981928,
761.010376,0.0004416838347,761.010376,0.01283112541,761.010376,0.007430506404,761.010376,0.008538998663,
759.9904785,0.0006503020995,759.9904785,0.01237552054,759.9904785,0.00718786614,759.9904785,0.008721698076,
759.0053101,0.000732958084,759.0053101,0.0127070304,759.0053101,0.007891810499,759.0053101,0.007627229672,
757.9846191,0.0001512262679,757.9846191,0.01338808145,757.9846191,0.008057544939,757.9846191,0.008793409914,
756.9987793,-0.0005306486855,756.9987793,0.01316274237,756.9987793,0.007145812269,756.9987793,0.008638642728,
756.0124512,3.748450035E-005,756.0124512,0.01311098132,756.0124512,0.007505719084,756.0124512,0.008601781912,
754.9906616,-0.0001721593289,754.9906616,0.01267408673,754.9906616,0.006792802829,754.9906616,0.008208042011,
754.0037231,0.0001007080937,754.0037231,0.0123683298,754.0037231,0.006517565344,754.0037231,0.008466959,
753.0164185,0.001026036567,753.0164185,0.01351934113,753.0164185,0.008290988393,753.0164185,0.009411442094,
751.9934692,0.0003273996699,751.9934692,0.01281174179,751.9934692,0.007148943841,751.9934692,0.009153680876,
751.0054321,-1.734325269E-005,751.0054321,0.01338207442,751.0054321,0.00802426599,751.0054321,0.008444470353,
750.0170288,-0.0002751841967,750.0170288,0.01195713878,750.0170288,0.005721013993,750.0170288,0.008910261095,
748.992981,3.417082189E-005,748.992981,0.01401213091,748.992981,0.008377117105,748.992981,0.008782077581,
748.0039063,0.0001306920312,748.0039063,0.01302801631,748.0039063,0.007475379854,748.0039063,0.009301544167,
747.0144043,0.0006254668697,747.0144043,0.01324538607,747.0144043,0.007851243019,747.0144043,0.008832744323,
745.9891968,-0.0003103136551,745.9891968,0.01332203951,745.9891968,0.007115655579,745.9891968,0.0088926116,
744.9990845,-0.001021087402,744.9990845,0.01348123513,744.9990845,0.007967920043,744.9990845,0.008659478277,
744.0085449,0.0002265354124,744.0085449,0.01366813667,744.0085449,0.007267616689,744.0085449,0.009726427495,
743.0176392,-6.83384178E-006,743.0176392,0.01387660671,743.0176392,0.007509248331,743.0176392,0.009372373112,
741.9910278,-4.9491151E-005,741.9910278,0.01291378587,741.9910278,0.007586292457,741.9910278,0.009211265482,
740.9993896,0.0005909902975,740.9993896,0.01391196717,740.9993896,0.008382764645,740.9993896,0.01014740765,
740.0074463,0.001221281243,740.0074463,0.01360485703,740.0074463,0.007648358587,740.0074463,0.009321352467,
739.0151367,-0.0002013978956,739.0151367,0.01472806279,739.0151367,0.008220731281,739.0151367,0.009819540195,
737.9871216,-0.00017955972,737.9871216,0.01397424936,737.9871216,0.007897187956,737.9871216,0.008910790086,
736.9940796,3.013231253E-005,736.9940796,0.01315012202,736.9940796,0.007761476561,736.9940796,0.009987019002,
736.0006714,-0.0002324455563,736.0006714,0.01438219007,736.0006714,0.00838062726,736.0006714,0.01023358759,
735.007019,-0.0001739188738,735.007019,0.01446321979,735.007019,0.007922547869,735.007019,0.01023642346,
734.0129395,0.0003072715772,734.0129395,0.01426717453,734.0129395,0.008271411061,734.0129395,0.009898742661,
732.9830322,0.0002743743826,732.9830322,0.0138600897,732.9830322,0.008309775032,732.9830322,0.01055609155,
731.9882202,0.0005185724585,731.9882202,0.01501169056,731.9882202,0.008561306633,731.9882202,0.01041875221,
730.993103,0.000357269746,730.993103,0.01398355234,730.993103,0.007979257032,730.993103,0.01060662139,
729.9976807,0.0009954718407,729.9976807,0.0146469567,729.9976807,0.008949737996,729.9976807,0.01020443533,
729.0018921,-0.0003994438157,729.0018921,0.01402397454,729.0018921,0.008167155087,729.0018921,0.01039952878,
728.0057373,-0.0002055377117,728.0057373,0.01412218437,728.0057373,0.007855908945,728.0057373,0.01040186267,
727.0092773,0.0006659349892,727.0092773,0.01490106154,727.0092773,0.008811082691,727.0092773,0.01038958691,
726.0124512,0.0002484987199,726.0124512,0.01483744103,726.0124512,0.008759731427,726.0124512,0.01064269803,
725.0152588,-0.001027440303,725.0152588,0.01386885531,725.0152588,0.007657974958,725.0152588,0.008871712722,
724.0177612,-0.0002263914357,724.0177612,0.01411547232,724.0177612,0.008370968513,724.0177612,0.009959789924,
722.9842529,2.11493516E-005,722.9842529,0.01487033535,722.9842529,0.008570653386,722.9842529,0.01059651468,
721.9860229,0.0008688768721,721.9860229,0.01546829939,721.9860229,0.009522453882,721.9860229,0.0113417469,
720.9874878,0.0001214221629,720.9874878,0.01534771267,720.9874878,0.00902693253,720.9874878,0.01124865189,
719.9885254,0.0006567573873,719.9885254,0.01487842575,719.9885254,0.009522083215,719.9885254,0.01092337724,
718.9894409,0.0006979284808,718.9894409,0.01548841782,718.9894409,0.009408823214,718.9894409,0.0113668032,
717.9898071,-0.0001390371617,717.9898071,0.01493513957,717.9898071,0.008801150136,717.9898071,0.01021805685,
716.9898682,0.000304085348,716.9898682,0.01534548681,716.9898682,0.00927435793,716.9898682,0.01080868952,
715.989624,0.0005963300937,715.989624,0.01527126413,715.989624,0.009256904945,715.989624,0.01094049867,
714.9890137,-4.44698162E-005,714.9890137,0.01552391052,714.9890137,0.009480251931,714.9890137,0.01120923087,
713.9880981,-0.0003087615769,713.9880981,0.01533543039,713.9880981,0.0091000963,713.9880981,0.01062500384,
712.9868164,-0.00067013636,712.9868164,0.01477182191,712.9868164,0.008482928388,712.9868164,0.01030114945,
711.9852905,0.0001723311871,711.9852905,0.01539813168,711.9852905,0.01015795395,711.9852905,0.01066495571,
710.9832764,-0.0006035001134,710.9832764,0.01496796031,710.9832764,0.009082570672,710.9832764,0.01104502473,
710.0167847,-1.687732401E-005,710.0167847,0.01559737138,710.0167847,0.009077415802,710.0167847,0.01089736354,
709.0142212,0.0008836616762,709.0142212,0.01511025801,709.0142212,0.01008050609,709.0142212,0.01191690844,
708.0112915,-0.0002330147399,708.0112915,0.01537018642,708.0112915,0.009485014714,708.0112915,0.01141514163,
707.0079956,6.764530553E-005,707.0079956,0.01484148577,707.0079956,0.008774523623,707.0079956,0.01024111453,
706.0043945,0.0004979949445,706.0043945,0.01635110751,706.0043945,0.009980874136,706.0043945,0.01117464807,
705.0004272,-0.0002615765843,705.0004272,0.0158550404,705.0004272,0.009715097025,705.0004272,0.01182550006,
703.9962158,-6.538303569E-005,703.9962158,0.01562613621,703.9962158,0.009649241343,703.9962158,0.01093173865,
702.9915771,0.0003977646993,702.9915771,0.01550081186,702.9915771,0.009606895037,702.9915771,0.010584048,
701.9866943,0.0001640703704,701.9866943,0.01580888964,701.9866943,0.009924061596,701.9866943,0.0113366181,
701.0172729,0.0006874538376,701.0172729,0.01598379761,701.0172729,0.009623912163,701.0172729,0.01160057075,
700.0117188,-0.0002918956161,700.0117188,0.0156063335,700.0117188,0.009523274377,700.0117188,0.01172802038,
699.0057373,-0.0002542810689,699.0057373,0.01637282595,699.0057373,0.0106319543,699.0057373,0.01179118641,
697.9995728,0.0003461297601,697.9995728,0.01663170941,697.9995728,0.01055436768,697.9995728,0.01185428258,
696.992981,-0.0002963449806,696.992981,0.01567527279,696.992981,0.00937009789,696.992981,0.01127466001,
695.9860229,0.0004798802547,695.9860229,0.01574537717,695.9860229,0.01001387835,695.9860229,0.01280768961,
695.0147705,1.11311092E-005,695.0147705,0.01622882485,695.0147705,0.009626982734,695.0147705,0.01180698629,
694.0072632,7.152881881E-005,694.0072632,0.01614966802,694.0072632,0.009950334206,694.0072632,0.01181259844,
692.9993286,5.063590652E-005,692.9993286,0.01776121557,692.9993286,0.01132928487,692.9993286,0.012981846,
691.9911499,-0.0007780560991,691.9911499,0.01550464798,691.9911499,0.009391100146,691.9911499,0.0123796761,
690.982605,0.0005676877336,690.982605,0.01675198041,690.982605,0.01069952454,690.982605,0.0125127621,
690.0097656,-0.0002852732141,690.0097656,0.01723285764,690.0097656,0.01066474337,690.0097656,0.01153814979,
689.0006104,0.0002354449243,689.0006104,0.01691488735,689.0006104,0.01097827591,689.0006104,0.01352193113,
687.9911499,0.0002025013673,687.9911499,0.01758451387,687.9911499,0.01094485261,687.9911499,0.0129943816,
687.017334,-0.0002940168197,687.017334,0.01666990295,687.017334,0.01078963559,687.017334,0.01258587558,
686.0071411,3.90879859E-006,686.0071411,0.01829202659,686.0071411,0.01253479626,686.0071411,0.01402242389,
684.9967041,0.0005131040234,684.9967041,0.01939673908,684.9967041,0.01204383839,684.9967041,0.01371569,
683.9859619,-0.0002955171803,683.9859619,0.01793580502,683.9859619,0.01145160478,683.9859619,0.01387700718,
683.0109253,0.0003502230102,683.0109253,0.01863710955,683.0109253,0.01290645171,683.0109253,0.01481001358,
681.9994507,-0.0003854780225,681.9994507,0.01868272386,681.9994507,0.01313168462,681.9994507,0.01455042139,
680.9877319,0.000723623496,680.9877319,0.01970193349,680.9877319,0.0131769646,680.9877319,0.01551859826,
680.0118408,8.947111928E-005,680.0118408,0.01847061142,680.0118408,0.01303409785,680.0118408,0.0152401356,
678.9994507,0.0002538861008,678.9994507,0.01927118748,678.9994507,0.01324135624,678.9994507,0.0154965464,
677.9866943,0.000284139649,677.9866943,0.01979333721,677.9866943,0.01353295986,677.9866943,0.01512349863,
677.0098877,0.0009136997396,677.0098877,0.02088751085,677.0098877,0.01499585342,677.0098877,0.0168832913,
675.996582,0.0002318189363,675.996582,0.02134876698,675.996582,0.01461067982,675.996582,0.01636623964,
674.9829102,0.0003149652039,674.9829102,0.02177259699,674.9829102,0.01498845872,674.9829102,0.017256964,
674.005127,0.0002849944576,674.005127,0.02263440005,674.005127,0.01558610145,674.005127,0.01802038774,
672.9909058,-0.0002161975572,672.9909058,0.02245594934,672.9909058,0.01569819264,672.9909058,0.01716385968,
672.0125122,-0.0002780815703,672.0125122,0.02251123637,672.0125122,0.01635884866,672.0125122,0.01777011529,
670.9976196,-9.866610344E-005,670.9976196,0.02382205985,670.9976196,0.01635376737,670.9976196,0.01914629526,
669.9823608,4.097942292E-005,669.9823608,0.02295093983,669.9823608,0.01772605255,669.9823608,0.01939657703,
669.0031738,0.0001861600031,669.0031738,0.0254411418,669.0031738,0.01830296218,669.0031738,0.02061913162,
667.9873047,0.0007740585716,667.9873047,0.02657059766,667.9873047,0.01899039187,667.9873047,0.02174208872,
667.0074463,0.0005556351971,667.0074463,0.02698652819,667.0074463,0.01983549446,667.0074463,0.02206366882,
665.9910278,0.0002035372891,665.9910278,0.02709217928,665.9910278,0.02027626708,665.9910278,0.02337196656,
665.010498,-0.0004272706283,665.010498,0.02854348905,665.010498,0.02120487206,665.010498,0.02384021878,
663.9934082,-0.0004349770024,663.9934082,0.02951661311,663.9934082,0.02141234279,663.9934082,0.02487945929,
663.0124512,0.0006041844026,663.0124512,0.03013199382,663.0124512,0.02274442464,663.0124512,0.02608675137,
661.994751,0.0002241526672,661.994751,0.03124118596,661.994751,0.02422348596,661.994751,0.02733936533,
661.0130615,0.0009176167659,661.0130615,0.03283187374,661.0130615,0.02571748942,661.0130615,0.0287278071,
659.9946899,-0.0003297138319,659.9946899,0.03258592263,659.9946899,0.0252567865,659.9946899,0.02804043144,
659.0125122,0.0006321032997,659.0125122,0.03502828628,659.0125122,0.02692998201,659.0125122,0.0303218998,
657.9935913,-0.0001207671376,657.9935913,0.03516395018,657.9935913,0.02808323316,657.9935913,0.03046257235,
657.0107422,-0.0006331232726,657.0107422,0.03594390675,657.0107422,0.02833545953,657.0107422,0.03167322651,
655.991272,0.0006175344461,655.991272,0.03731611371,655.991272,0.02971340157,655.991272,0.03392386436,
655.0078125,2.492890235E-005,655.0078125,0.03822927922,655.0078125,0.03045701794,655.0078125,0.03410213441,
653.9876709,-5.710069308E-005,653.9876709,0.03862014413,653.9876709,0.03011806495,653.9876709,0.03418776765,
653.0036621,0.0002721985802,653.0036621,0.03958548233,653.0036621,0.03067512251,653.0036621,0.03501722962,
651.9829102,0.0004334697151,651.9829102,0.04000811279,651.9829102,0.03107595816,651.9829102,0.0357096754,
650.998291,0.0002505966986,650.998291,0.04071593285,650.998291,0.03153090924,650.998291,0.03576119617,
650.0134277,0.0005276434822,650.0134277,0.04035288841,650.0134277,0.03183843195,650.0134277,0.03644905612,
648.9918213,-0.0001973615435,648.9918213,0.03992487118,648.9918213,0.0311341323,648.9918213,0.03663453832,
648.0063477,-0.0001800772297,648.0063477,0.04031121731,648.0063477,0.03123645671,648.0063477,0.03561699763,
646.9840698,6.285568088E-005,646.9840698,0.04144557938,646.9840698,0.03107787669,646.9840698,0.03645992652,
645.9981079,0.0001525728148,645.9981079,0.04031581804,645.9981079,0.03116867319,645.9981079,0.03637527674,
645.0117188,-0.0006910711527,645.0117188,0.0394991748,645.0117188,0.03075972386,645.0117188,0.03545714915,
643.9885864,-0.0007595028146,643.9885864,0.03968979046,643.9885864,0.03078623116,643.9885864,0.03497598693,
643.001709,-0.0009865835309,643.001709,0.03999746963,643.001709,0.03060787171,643.001709,0.03564591333,
642.0144653,0.001353821484,642.0144653,0.04063676298,642.0144653,0.03131554648,642.0144653,0.03646476567,
640.9904785,-0.000167967446,640.9904785,0.03963301331,640.9904785,0.03102607653,640.9904785,0.03518362716,
640.0026855,0.0002753068693,640.0026855,0.03988971189,640.0026855,0.03079709597,640.0026855,0.03556055203,
639.0146484,-0.0002064691653,639.0146484,0.03941526636,639.0146484,0.02875355631,639.0146484,0.03397335112,
637.9898071,-0.0005853013135,637.9898071,0.03780639917,637.9898071,0.02816409804,637.9898071,0.03386623785,
637.0011597,0.000930794864,637.0011597,0.03814581037,637.0011597,0.02925746888,637.0011597,0.03404694796,
636.0122681,-0.0001447819668,636.0122681,0.03853289783,636.0122681,0.02886503004,636.0122681,0.03300179169,
634.9864502,0.0007823310443,634.9864502,0.03866708651,634.9864502,0.0290631298,634.9864502,0.03434785083,
633.9970093,-0.0008057553205,633.9970093,0.03664400056,633.9970093,0.02750676125,633.9970093,0.03224421665,
633.0072632,0.0004523080133,633.0072632,0.03759859875,633.0072632,0.02843944915,633.0072632,0.03268805891,
632.0172729,0.001022092649,632.0172729,0.03757237643,632.0172729,0.02809922211,632.0172729,0.03344115242,
630.9902954,0.0002019316016,630.9902954,0.03699431568,630.9902954,0.02747124247,630.9902954,0.03161294758,
629.9996948,-2.044943358E-005,629.9996948,0.03573404253,629.9996948,0.02714364976,629.9996948,0.03211589903,
629.0088501,0.0005000163219,629.0088501,0.03646701947,629.0088501,0.02774585038,629.0088501,0.03175537661,
628.0177002,-0.0002139724675,628.0177002,0.03577921167,628.0177002,0.02644799091,628.0177002,0.03152108565,
626.989624,-0.0002939133556,626.989624,0.03554083034,626.989624,0.026635658,626.989624,0.03101979382,
625.9978638,0.001010131207,625.9978638,0.03681916371,625.9978638,0.02672335692,625.9978638,0.03134245053,
625.0059204,0.0008834541659,625.0059204,0.03663453832,625.0059204,0.02614241838,625.0059204,0.03059445694,
624.0137329,-0.000114659706,624.0137329,0.036522571,624.0137329,0.02631812915,624.0137329,0.03089519963,
622.984375,0.0001327117498,622.984375,0.03582241759,622.984375,0.02648818679,622.984375,0.0311142765,
621.9915771,0.000441528362,621.9915771,0.03514809161,621.9915771,0.0265892297,621.9915771,0.03103283234,
620.9985352,0.0004553916515,620.9985352,0.03614284098,620.9985352,0.02646202035,620.9985352,0.03133290634,
620.005127,0.0002580044093,620.005127,0.03567067161,620.005127,0.02645200677,620.005127,0.03167879581,
619.0115356,-0.0003280066303,619.0115356,0.03616146371,619.0115356,0.02594191022,619.0115356,0.0315345563,
618.0177002,2.57831889E-005,618.0177002,0.03571071848,618.0177002,0.02579909563,618.0177002,0.03181138635,
616.9866333,-0.0006452717353,616.9866333,0.0359274298,616.9866333,0.02566616051,616.9866333,0.03089025244,
615.9921875,7.351677141E-006,615.9921875,0.03725597635,615.9921875,0.02679232135,615.9921875,0.03219841048,
614.9974976,0.000350948394,614.9974976,0.03713944927,614.9974976,0.02706046775,614.9974976,0.03271351382,
614.0025024,-0.0005123433657,614.0025024,0.03790776432,614.0025024,0.02699291892,614.0025024,0.03353907168,
613.0072021,-7.599455421E-005,613.0072021,0.03855156898,613.0072021,0.02758255415,613.0072021,0.03358812258,
612.0117798,-0.0001094320833,612.0117798,0.03838859871,612.0117798,0.02795194276,612.0117798,0.03446015716,
611.0159302,0.0002579007996,611.0159302,0.03968859836,611.0159302,0.02830401622,611.0159302,0.03532032296,
609.9829712,-0.0004009955446,609.9829712,0.04031482339,609.9829712,0.02888315171,609.9829712,0.0354825668,
608.9866333,-0.0004536992637,608.9866333,0.04055669531,608.9866333,0.02878699452,608.9866333,0.03594196588,
607.9899902,9.270754526E-005,607.9899902,0.04162921757,607.9899902,0.02916648984,607.9899902,0.03649832681,
606.993103,0.0002613198012,606.993103,0.04234879091,606.993103,0.02897706069,606.993103,0.03724613041,
605.9959717,4.605358117E-005,605.9959717,0.04305037484,605.9959717,0.03009564802,605.9959717,0.03864858299,
604.9985962,-0.0002594552061,604.9985962,0.04365625232,604.9985962,0.0307023488,604.9985962,0.03878928721,
604.0009155,0.0001980728121,604.0009155,0.04517160729,604.0009155,0.03146210685,604.0009155,0.04022098705,
603.0029297,-0.0004849357356,603.0029297,0.04619793221,603.0029297,0.03150257468,603.0029297,0.04133675247,
602.0047607,0.0004263699229,602.0047607,0.04782633856,602.0047607,0.03298003599,602.0047607,0.04343453422,
601.0062256,4.843534771E-005,601.0062256,0.04845640063,601.0062256,0.03313713148,601.0062256,0.0436036177,
600.0075073,-0.0005338545889,600.0075073,0.04853932559,600.0075073,0.03313115239,600.0075073,0.04415813833,
599.0085449,-0.0002440360986,599.0085449,0.05117913708,599.0085449,0.03417090699,599.0085449,0.04603056982,
598.0092163,9.123173368E-005,598.0092163,0.05257470533,598.0092163,0.03560460731,598.0092163,0.04782018438,
597.0097046,-0.0002094704978,597.0097046,0.05388528854,597.0097046,0.03548197821,597.0097046,0.04852641746,
596.0098877,-0.000167760445,596.0098877,0.05630948767,596.0098877,0.03661254048,596.0098877,0.05085729808,
595.0098877,-0.0009110064711,595.0098877,0.05672169477,595.0098877,0.03748596087,595.0098877,0.05171490461,
594.0095825,7.69916951E-005,594.0095825,0.05932061002,594.0095825,0.03818834946,594.0095825,0.05369124189,
593.0089722,-0.0001092768071,593.0089722,0.06090056896,593.0089722,0.03860319778,593.0089722,0.05565781519,
592.0081787,-0.0002351879812,592.0081787,0.0630666092,592.0081787,0.04017458856,592.0081787,0.05822249502,
591.0070801,-0.0001290482614,591.0070801,0.06471522897,591.0070801,0.04128411412,591.0070801,0.05995123833,
590.0056763,-0.0001868564868,590.0056763,0.06770281494,590.0056763,0.04258625582,590.0056763,0.06172511354,
589.0040894,-0.0002949998307,589.0040894,0.06892247498,589.0040894,0.04323157296,589.0040894,0.06403084844,
588.0021973,0.0004518934002,588.0021973,0.07151722163,588.0021973,0.04505894333,588.0021973,0.06662593782,
587.000061,0.0002038998646,587.000061,0.07445367426,587.000061,0.04601229355,587.000061,0.06897526979,
585.9976807,0.000219646201,585.9976807,0.07648923248,585.9976807,0.04777492955,585.9976807,0.07162674516,
584.9950562,-0.0004210123443,584.9950562,0.07891540974,584.9950562,0.04888749495,584.9950562,0.07321214676,
583.9921875,0.0002070594346,583.9921875,0.08198112994,583.9921875,0.0503054671,583.9921875,0.07617872208,
582.9889526,0.0001746618655,582.9889526,0.08465211838,582.9889526,0.05207782611,582.9889526,0.07903460413,
581.9855957,0.0001225355663,581.9855957,0.08627584577,581.9855957,0.05295741186,581.9855957,0.08114203066,
580.9818726,0.000736691989,580.9818726,0.08971382678,580.9818726,0.05501464009,580.9818726,0.08423127234,
580.0151367,-0.0001292552915,580.0151367,0.09160114825,580.0151367,0.0558950752,580.0151367,0.08615177125,
579.0109863,0.0005274101859,579.0109863,0.09429132938,579.0109863,0.05823747441,579.0109863,0.08873352408,
578.0065308,-0.0008925105794,578.0065308,0.09620577097,578.0065308,0.05878249928,578.0065308,0.09082115442,
577.0018311,5.728942779E-005,577.0018311,0.09961394221,577.0018311,0.06047280133,577.0018311,0.09345853329,
575.9968872,0.0001396772568,575.9968872,0.1020222381,575.9968872,0.06160117686,575.9968872,0.09625998139,
574.9917603,-1.299456198E-005,574.9917603,0.1042342111,574.9917603,0.06298511475,574.9917603,0.09809279442,
573.9862061,-6.419245619E-005,573.9862061,0.105835326,573.9862061,0.06470984966,573.9862061,0.09988430887,
573.0177612,-0.0001441609202,573.0177612,0.1075917408,573.0177612,0.06551836431,573.0177612,0.10180787,
572.0118408,-0.0005005531712,572.0118408,0.1089697331,572.0118408,0.06611872464,572.0118408,0.1036427021,
571.0056763,6.008548735E-005,571.0056763,0.1115370244,571.0056763,0.06787446886,571.0056763,0.1057662368,
569.9992065,-0.0002760637435,569.9992065,0.1122595519,569.9992065,0.06780486554,569.9992065,0.1069642827,
568.9925537,-6.869592471E-005,568.9925537,0.113493517,568.9925537,0.06885285676,568.9925537,0.1074004024,
567.9855957,-0.0001437468745,567.9855957,0.115318276,567.9855957,0.06966390461,567.9855957,0.1089859009,
567.0157471,0.0001969851146,567.0157471,0.1158929169,567.0157471,0.07022842765,567.0157471,0.1096692681,
566.0082397,-0.0001170923351,566.0082397,0.1160970703,566.0082397,0.07041210681,566.0082397,0.1103437319,
565.0006104,-0.0002903952263,565.0006104,0.116561383,565.0006104,0.07064425945,565.0006104,0.1106687486,
563.9926147,-0.0007921126089,563.9926147,0.1168994904,563.9926147,0.07123259455,563.9926147,0.1107689962,
562.9844971,0.0004120152444,562.9844971,0.1178447306,562.9844971,0.07177101076,562.9844971,0.1120053977,
562.0134277,-8.205077029E-005,562.0134277,0.1186989769,562.0134277,0.07241729647,562.0134277,0.1127755865,
561.0047607,-0.0006438242854,561.0047607,0.1185105667,561.0047607,0.07244396955,561.0047607,0.112577416,
559.9957886,0.0005707981181,559.9957886,0.1197724789,559.9957886,0.07361900806,559.9957886,0.1137160212,
558.9866943,-0.0004349252849,558.9866943,0.1202983409,558.9866943,0.07390803099,558.9866943,0.1139640063,
558.0146484,-1.268393953E-005,558.0146484,0.1204598248,558.0146484,0.07442611456,558.0146484,0.1145848855,
557.0050659,0.0001160622996,557.0050659,0.1218283996,557.0050659,0.0754493475,557.0050659,0.1158764884,
555.9951172,-0.0004020300403,555.9951172,0.1219926104,555.9951172,0.07545489073,555.9951172,0.1160977781,
554.9849854,0.0003366221208,554.9849854,0.1232093796,554.9849854,0.07679469138,554.9849854,0.1170238554,
554.012085,-0.0002364298416,554.012085,0.1235722825,554.012085,0.07735835761,554.012085,0.1177801862,
553.0014648,0.0001812913833,553.0014648,0.1251886934,553.0014648,0.07830243558,553.0014648,0.1193150803,
551.9905396,-0.0003043123579,551.9905396,0.1252122819,551.9905396,0.07868611068,551.9905396,0.1200510785,
551.0169067,1.837907689E-006,551.0169067,0.1268049031,551.0169067,0.07968787849,551.0169067,0.1211718023,
550.0056763,-0.0003317831142,550.0056763,0.1276754737,550.0056763,0.08032383025,550.0056763,0.1223096922,
548.9940186,-0.0003686667478,548.9940186,0.1291996539,548.9940186,0.08134187758,548.9940186,0.1230193824,
547.9821777,-5.834305193E-005,547.9821777,0.1306737661,547.9821777,0.0821839273,547.9821777,0.1247725114,
547.0076294,-6.207011756E-005,547.0076294,0.131369099,547.0076294,0.08333914727,547.0076294,0.1258220971,
545.9954224,-0.00015409771,545.9954224,0.1327179074,545.9954224,0.08398590237,545.9954224,0.1266599298,
544.9828491,0.0002233756823,544.9828491,0.133227855,544.9828491,0.08495027572,544.9828491,0.1274334639,
544.0076294,-8.458710363E-005,544.0076294,0.1341323555,544.0076294,0.08543686569,544.0076294,0.1282294393,
542.9946289,0.0003190063871,542.9946289,0.1352612078,542.9946289,0.08636555821,542.9946289,0.1294384152,
541.9813843,0.0002272346901,541.9813843,0.1358390898,541.9813843,0.08673537523,541.9813843,0.1301556975,
541.0054321,-4.555906344E-006,541.0054321,0.1361145973,541.0054321,0.08715046197,541.0054321,0.1305899471,
539.9917603,2.51094616E-006,539.9917603,0.1362777054,539.9917603,0.0870283246,539.9917603,0.1307431608,
539.0153809,0.0007143928087,539.0153809,0.1376344413,539.0153809,0.08815471828,539.0153809,0.1314909607,
538.0012207,0.000184399003,538.0012207,0.1369864494,538.0012207,0.08795384318,538.0012207,0.1314153522,
536.9867554,-4.545338015E-005,536.9867554,0.1368674785,536.9867554,0.08790899068,536.9867554,0.131225571,
536.0097046,7.593018381E-005,536.0097046,0.1375793517,536.0097046,0.08866262436,536.0097046,0.1310809404,
534.9949341,-1.599723328E-005,534.9949341,0.1370596588,534.9949341,0.08860652894,534.9949341,0.1313009411,
534.017395,5.226691428E-005,534.017395,0.1367982775,534.017395,0.0887626484,534.017395,0.1310103834,
533.0020752,0.0002371025184,533.0020752,0.1365142167,533.0020752,0.08892615885,533.0020752,0.1306744367,
531.9865112,-4.866534709E-006,531.9865112,0.1363901347,531.9865112,0.08885941654,531.9865112,0.130603224,
531.0083618,-0.0001403310453,531.0083618,0.1359788775,531.0083618,0.08885741979,531.0083618,0.1302787066,
529.9923096,0.0001619469258,529.9923096,0.1357135028,529.9923096,0.08914013207,529.9923096,0.1297322512,
529.0136719,-2.604050314E-005,529.0136719,0.1350480616,529.0136719,0.08883436024,529.0136719,0.1293110698,
527.9972534,0.0001335403504,527.9972534,0.1347309053,527.9972534,0.08928903937,527.9972534,0.1289329529,
527.0181274,0.0001218882389,527.0181274,0.133903861,527.0181274,0.08922100067,527.0181274,0.1286398619,
526.0012207,2.174426754E-006,526.0012207,0.1336409897,526.0012207,0.08891494572,526.0012207,0.1281160116,
524.9840088,7.40142932E-005,524.9840088,0.1330286115,524.9840088,0.08898540586,524.9840088,0.1276116818,
524.0043945,3.559466495E-005,524.0043945,0.1321579069,524.0043945,0.08889982104,524.0043945,0.1268230081,
522.9866943,-2.749002851E-005,522.9866943,0.1317954063,522.9866943,0.08929815888,522.9866943,0.1264134943,
522.0065918,-0.0002485894656,522.0065918,0.1308946162,522.0065918,0.08881885558,522.0065918,0.1253572255,
520.9885254,0.0003493939876,520.9885254,0.1307033896,520.9885254,0.08875305206,520.9885254,0.1250003427,
520.0079346,9.565919026E-005,520.0079346,0.1293980926,520.0079346,0.0886021778,520.0079346,0.1240981221,
518.9894409,2.218484224E-005,518.9894409,0.1286343634,518.9894409,0.08818589151,518.9894409,0.1231422797,
518.0084229,2.057983329E-005,518.0084229,0.1283098459,518.0084229,0.08820812404,518.0084229,0.1228300482,
516.9894409,-0.0002946894092,516.9894409,0.1273296773,516.9894409,0.08777783066,516.9894409,0.1218795329,
516.0079346,0.0002776898909,516.0079346,0.126620993,516.0079346,0.08765922487,516.0079346,0.1212131381,
514.9885864,-0.0002920508268,514.9885864,0.1261405051,514.9885864,0.08727738261,514.9885864,0.1206832901,
514.0067139,-0.000341870822,514.0067139,0.1254225224,514.0067139,0.08691548556,514.0067139,0.119383052,
512.9868774,-3.266686326E-005,512.9868774,0.1243439764,512.9868774,0.08704442531,512.9868774,0.1191568524,
512.0045776,-0.0005649302038,512.0045776,0.1235807762,512.0045776,0.08625411987,512.0045776,0.1182334572,
510.9842529,-0.0001127446449,510.9842529,0.122550413,510.9842529,0.0859702453,510.9842529,0.1178916618,
510.0015564,-0.0003807709436,510.0015564,0.1222100407,510.0015564,0.08579242229,510.0015564,0.1169708893,
509.0186157,0.0001962858805,509.0186157,0.1220272705,509.0186157,0.08557958156,509.0186157,0.1160528064,
507.9976807,-0.0001518205536,507.9976807,0.1213511974,507.9976807,0.08501935005,507.9976807,0.1157899648,
507.0143433,0.0002543264418,507.0143433,0.1206563637,507.0143433,0.0848807469,507.0143433,0.115635857,
505.9929199,2.516188943E-005,505.9929199,0.1202723905,505.9929199,0.08459305018,505.9929199,0.1149189249,
505.0091553,6.790420593E-005,505.0091553,0.1200456172,505.0091553,0.08449241519,505.0091553,0.1148754209,
503.9873352,-0.0001309632498,503.9873352,0.1198210865,503.9873352,0.08343844861,503.9873352,0.1143405512,
503.0031433,-0.0001012541034,503.0031433,0.1194140613,503.0031433,0.08363006264,503.0031433,0.1138338894,
502.0187378,-4.602281479E-005,502.0187378,0.1197950915,502.0187378,0.08331819624,502.0187378,0.1145469695,
500.9962463,-8.469063323E-005,500.9962463,0.1187086031,500.9962463,0.082882002,500.9962463,0.1135842279,
500.0114136,-0.0003388703917,500.0114136,0.1188488677,500.0114136,0.08300824463,500.0114136,0.1135085151,
498.9885254,-2.34002855E-005,498.9885254,0.1189952418,498.9885254,0.08278157562,498.9885254,0.1135277078,
498.0032654,0.0001296562841,498.0032654,0.1195004657,498.0032654,0.08277192712,498.0032654,0.1138041168,
497.0178833,0.0001708810014,497.0178833,0.1190099791,497.0178833,0.08259803802,497.0178833,0.1133183464,
495.9942932,-3.080321039E-005,495.9942932,0.1190392971,495.9942932,0.08236528933,495.9942932,0.1128358617,
495.0084534,0.000219154128,495.0084534,0.1192782819,495.0084534,0.08289268613,495.0084534,0.1140279844,
493.9845276,-4.436628296E-005,493.9845276,0.1189946979,493.9845276,0.08222386986,493.9845276,0.1134342551,
492.9981995,-1.822333979E-005,492.9981995,0.1190237701,492.9981995,0.08210258186,492.9981995,0.1135371923,
492.0117798,0.0005307276733,492.0117798,0.1196236983,492.0117798,0.0822744891,492.0117798,0.1138669625,
490.9871521,7.207251474E-005,490.9871521,0.1193385199,490.9871521,0.08204266429,490.9871521,0.1139287055,
490.0003052,6.77747521E-005,490.0003052,0.1197009981,490.0003052,0.0821775496,490.0003052,0.1143356338,
489.0132446,0.0001810583199,489.0132446,0.1203710139,489.0132446,0.08181387186,489.0132446,0.1147401407,
487.9879761,-8.846922719E-005,487.9879761,0.1197184548,487.9879761,0.08197372407,487.9879761,0.114649564,
487.0005493,0.0001752833778,487.0005493,0.120451726,487.0005493,0.08219603449,487.0005493,0.1154401228,
486.0128784,-4.969821384E-005,486.0128784,0.1214211732,486.0128784,0.08244148642,486.0128784,0.1157542467,
484.9869385,0.0001259793935,484.9869385,0.1219897643,484.9869385,0.08270944655,484.9869385,0.1163748503,
483.9988708,0.0004014956939,483.9988708,0.1227092296,483.9988708,0.08295346797,483.9988708,0.1171879545,
483.0106201,4.97297915E-005,483.0106201,0.1232252941,483.0106201,0.08310750127,483.0106201,0.1174877062,
481.9841003,-0.000296293234,481.9841003,0.1242375895,481.9841003,0.08335642517,481.9841003,0.1181394979,
480.9954529,7.510168507E-005,480.9954529,0.1254174411,480.9954529,0.08403411508,480.9954529,0.1194373742,
480.0066223,-4.089790309E-005,480.0066223,0.1257280409,480.0066223,0.08429444581,480.0066223,0.1205080599,
479.0174866,-1.584192432E-005,479.0174866,0.1269632727,479.0174866,0.084781304,479.0174866,0.1214136109,
477.9902649,0.0001297339622,477.9902649,0.1288239062,477.9902649,0.08559282124,477.9902649,0.1232136711,
477.0007324,9.975009016E-005,477.0007324,0.129812032,477.0007324,0.08656778932,477.0007324,0.1244999692,
476.0110779,0.0001722017041,476.0110779,0.1324252933,476.0110779,0.08767297119,476.0110779,0.1262682676,
474.9832153,0.000372762559,474.9832153,0.1342024058,474.9832153,0.08812151849,474.9832153,0.1280873567,
473.993103,8.58981366E-005,473.993103,0.1360846311,473.993103,0.08907654136,473.993103,0.1299952567,
473.0028687,0.0003148097894,473.0028687,0.1381680965,473.0028687,0.08996348083,473.0028687,0.1318527162,
472.0124207,0.0004463999067,472.0124207,0.1407357007,472.0124207,0.09161521494,472.0124207,0.135234341,
470.9836426,0.0006783794961,470.9836426,0.1431818455,470.9836426,0.09268417209,470.9836426,0.1370978951,
469.9928284,0.0004352057877,469.9928284,0.1464343965,469.9928284,0.09469380975,469.9928284,0.1406820118,
469.0018005,0.0001466428803,469.0018005,0.1489930153,469.0018005,0.09513945878,469.0018005,0.1425997168,
468.0105591,1.682620496E-005,468.0105591,0.151961565,468.0105591,0.09689890593,468.0105591,0.1457788497,
466.9811096,0.0002577194828,466.9811096,0.155323267,466.9811096,0.09851255268,466.9811096,0.1487353146,
465.989502,3.952967381E-005,465.989502,0.1581977457,465.989502,0.09979061782,465.989502,0.1526887417,
464.9976501,0.000191261759,464.9976501,0.1621192992,464.9976501,0.1016943306,464.9976501,0.1558305323,
464.0056763,0.0003784623987,464.0056763,0.1655883789,464.0056763,0.1035929844,464.0056763,0.1587354243,
463.0135498,-0.0002788059064,463.0135498,0.1689911336,463.0135498,0.1047163159,463.0135498,0.1623741835,
461.9829712,-7.99285117E-005,461.9829712,0.1731496155,461.9829712,0.1069449112,461.9829712,0.1660417616,
460.990448,-0.0001033762528,460.990448,0.1775036156,460.990448,0.1087476239,460.990448,0.1709027737,
459.9977112,7.026020467E-005,459.9977112,0.1811641008,459.9977112,0.1113286465,459.9977112,0.1749835163,
459.0047607,-0.0001381573238,459.0047607,0.1862291247,459.0047607,0.1130656525,459.0047607,0.1794716567,
458.0116272,8.35161627E-005,458.0116272,0.1911028028,458.0116272,0.1150532514,458.0116272,0.1837186515,
457.0183105,0.0004667417379,457.0183105,0.1977277398,457.0183105,0.1180870086,457.0183105,0.1901404113,
455.9866028,0.0002131973888,455.9866028,0.2036541253,455.9866028,0.1211049482,455.9866028,0.196379438,
454.9929199,-1.708440323E-005,454.9929199,0.2102348953,454.9929199,0.1238511279,454.9929199,0.2025554776,
453.999054,-3.748126619E-005,453.999054,0.216540128,453.999054,0.1280591041,453.999054,0.2097394317,
453.0049438,6.44867323E-005,453.0049438,0.2240393311,453.0049438,0.1310038716,453.0049438,0.2162660956,
452.0107422,3.90879859E-006,452.0107422,0.2325990349,452.0107422,0.1351968497,452.0107422,0.2240477353,
451.0163269,0.0004254112137,451.0163269,0.2410326451,451.0163269,0.1403951943,451.0163269,0.2328667194,
449.983429,0.0003475546255,449.983429,0.2518365681,449.983429,0.1453566104,449.983429,0.2427259237,
448.9886475,0.000308877643,448.9886475,0.2624538243,448.9886475,0.1507210881,448.9886475,0.2527687848,
447.9936523,-0.0002137137344,447.9936523,0.2720637619,447.9936523,0.1555608213,447.9936523,0.2643362582,
446.9985046,-0.0004475447931,446.9985046,0.2846921086,446.9985046,0.1614915431,446.9985046,0.2765829861,
446.0031128,-0.0001989139855,446.0031128,0.2988634706,446.0031128,0.1693110913,446.0031128,0.2906954288,
445.0075989,0.0001475233003,445.0075989,0.3148520291,445.0075989,0.1768365055,445.0075989,0.3070712984,
444.0118408,0.000105265106,444.0118408,0.3307574093,444.0118408,0.1840067059,444.0118408,0.3234896958,
443.0159912,5.428626901E-005,443.0159912,0.3509613276,443.0159912,0.1937226504,443.0159912,0.3405527174,
441.9815979,9.413158114E-005,441.9815979,0.3713651896,441.9815979,0.2034901083,441.9815979,0.3595769405,
440.985321,0.0001357413421,440.985321,0.3933568895,440.985321,0.2133816779,440.985321,0.3805124164,
439.9888916,0.0001003456055,439.9888916,0.4156586826,439.9888916,0.2241090983,439.9888916,0.4009578824,
438.9923096,-0.0002241146431,438.9923096,0.4395803511,438.9923096,0.2359499931,438.9923096,0.4288532436,
437.9954529,0.0004068849958,437.9954529,0.4648071826,437.9954529,0.2498611808,437.9954529,0.4524888098,
436.9984741,0.0001831818518,436.9984741,0.4935069382,436.9984741,0.2668879628,436.9984741,0.4811128974,
436.0013733,0.0002386047272,436.0013733,0.5199655294,436.0013733,0.2803181708,436.0013733,0.5085676908,
435.0039673,-9.939074516E-005,435.0039673,0.5537347198,435.0039673,0.2935809493,435.0039673,0.5401721597,
434.0064697,6.319224485E-005,434.0064697,0.5822266936,434.0064697,0.3126760721,434.0064697,0.5719851851,
433.008728,-0.0001744363835,433.008728,0.6177678704,433.008728,0.3301383555,433.008728,0.5960151553,
432.0108948,0.0002560618159,432.0108948,0.64607054,432.0108948,0.3485944867,432.0108948,0.6294983029,
431.0128784,0.000116709627,431.0128784,0.6795712709,431.0128784,0.3665520847,431.0128784,0.6621809006,
430.0146484,0.0001717096893,430.0146484,0.7120092511,430.0146484,0.3887293637,430.0146484,0.6968366504,
429.0162354,0.0003348346218,429.0162354,0.7404713631,429.0162354,0.4070709348,429.0162354,0.7253328562,
428.0177002,2.275436236E-005,428.0177002,0.7726463079,428.0177002,0.4249448478,428.0177002,0.7581256628,
427.0189209,7.595607167E-005,427.0189209,0.8041701317,427.0189209,0.4448415637,427.0189209,0.7835063338,
425.9815979,-0.0001489223214,425.9815979,0.8307117224,425.9815979,0.4647536278,425.9815979,0.8143263459,
424.9824829,9.229328134E-005,424.9824829,0.8531993628,424.9824829,0.4843372405,424.9824829,0.8397279978,
423.9832458,0.0001625166333,423.9832458,0.87493819,423.9832458,0.5010544658,423.9832458,0.8614299893,
422.9837952,0.0001354047272,422.9837952,0.8963541985,422.9837952,0.5162712336,422.9837952,0.8777698874,
421.9841614,-5.958541078E-005,421.9841614,0.9112780094,421.9841614,0.5331045985,421.9841614,0.8969439268,
420.984375,0.00032382473,420.984375,0.9233977199,420.984375,0.5434348583,420.984375,0.9089039564,
419.984436,-0.0001348449587,419.984436,0.9292319417,419.984436,0.5522412658,419.984436,0.9166669846,
418.9842834,7.769074E-005,418.9842834,0.9360748529,418.9842834,0.5607420206,418.9842834,0.9222434163,
417.9839783,0.0003102764895,417.9839783,0.938585341,417.9839783,0.5678091049,417.9839783,0.9236980081,
416.9835205,-0.0001761959284,416.9835205,0.9365428686,416.9835205,0.5728417635,416.9835205,0.9238564968,
415.9828491,0.0003081782197,415.9828491,0.9311599731,415.9828491,0.5763989091,415.9828491,0.9192418456,
414.9820557,0.0001008893378,414.9820557,0.9241609573,414.9820557,0.576657176,414.9820557,0.9116798639,
413.9810181,0.0002102190483,413.9810181,0.9171649814,413.9810181,0.5787651539,413.9810181,0.905819416,
413.0184021,-0.0003617868642,413.0184021,0.9070298076,413.0184021,0.5780116916,413.0184021,0.8941509724,
412.0171204,0.0001445713133,412.0171204,0.8943606615,412.0171204,0.5779090524,412.0171204,0.882972002,
411.015625,-0.000409840286,411.015625,0.8833041191,411.015625,0.5753541589,411.015625,0.8700996637,
410.0139771,0.0004720800207,410.0139771,0.8714118004,410.0139771,0.5756764412,410.0139771,0.8621496558,
409.0121765,-4.431451816E-005,409.0121765,0.859038651,409.0121765,0.573554635,409.0121765,0.8509976864,
408.0101318,-0.0001728321076,408.0101318,0.8460909724,408.0101318,0.5735179186,408.0101318,0.8375880122,
407.0079956,-0.0006947411457,407.0079956,0.8371382356,407.0079956,0.5728201866,407.0079956,0.8292925358,
406.0057068,0.0001244257874,406.0057068,0.8275991082,406.0057068,0.5726320744,406.0057068,0.8190550208,
405.0032349,0.0002306275419,405.0032349,0.8201081157,405.0032349,0.5724015832,405.0032349,0.8117566109,
404.0005493,-6.579714682E-005,404.0005493,0.8131405711,404.0005493,0.5723581314,404.0005493,0.8041652441,
402.9977417,0.000431707711,402.9977417,0.8063952923,402.9977417,0.5732961297,402.9977417,0.7976719141,
401.9947815,6.515986752E-005,401.9947815,0.7997437716,401.9947815,0.5744970441,401.9947815,0.7917439342,
400.9916077,-6.377834507E-005,400.9916077,0.7946702242,400.9916077,0.5752245188,400.9916077,0.7866030931,
399.9883118,-0.0001755749108,399.9883118,0.7896177769,399.9883118,0.5759550333,399.9883118,0.7842872143,
398.9848328,-0.0003634422028,398.9848328,0.7859591246,398.9848328,0.5762993097,398.9848328,0.7780563235,
397.9812317,-0.0003474577679,397.9812317,0.781047225,397.9812317,0.5771273375,397.9812317,0.7749050856,
397.0160522,-0.0001897544571,397.0160522,0.7758508921,397.0160522,0.5754055977,397.0160522,0.7713325024,
396.012085,-0.0003613730369,396.012085,0.7711690068,396.012085,0.5753935575,396.012085,0.7664243579,
395.0079956,0.0005550908973,395.0079956,0.7678022385,395.0079956,0.5734836459,395.0079956,0.7618236542,
394.0037231,-0.0005737715983,394.0037231,0.7610363364,394.0037231,0.5702911019,394.0037231,0.7555714846,
392.9992981,3.455914339E-005,392.9992981,0.7547950745,392.9992981,0.5674470067,392.9992981,0.7492989302,
391.9946899,0.0002690644178,391.9946899,0.7489020228,391.9946899,0.5627890229,391.9946899,0.7424124479,
390.9899292,-0.0005846291897,390.9899292,0.7402659655,390.9899292,0.5565602183,390.9899292,0.7341380715,
389.9850159,0.0001193507123,389.9850159,0.7305034399,389.9850159,0.5512855649,389.9850159,0.7257501483,
389.0185852,0.0004462703364,389.0185852,0.7224020362,389.0185852,0.5436312556,389.0185852,0.7158719301,
388.0133667,5.694917036E-007,388.0133667,0.7112743258,388.0133667,0.536431253,388.0133667,0.70523417,
387.0079956,0.0008365595713,387.0079956,0.699921608,387.0079956,0.5269753337,387.0079956,0.6939358711,
386.0024414,0.0002897088125,386.0024414,0.6885839701,386.0024414,0.5178684592,386.0024414,0.6836050153,
384.9967651,-0.0002464680001,384.9967651,0.677963078,384.9967651,0.5078033209,384.9967651,0.6701571345,
383.9909058,-0.0003916851128,383.9909058,0.6672655344,383.9909058,0.4979231358,383.9909058,0.6596221924,
382.9848938,0.0001862635982,382.9848938,0.6565286517,382.9848938,0.4906137288,382.9848938,0.6497525573,
382.017395,8.364561654E-005,382.017395,0.6445308924,382.017395,0.4812648892,382.017395,0.6374787092,
381.0110779,6.692038733E-005,381.0110779,0.6356269121,381.0110779,0.4727660418,381.0110779,0.6284736991,
380.0045776,-3.722242764E-005,380.0045776,0.6261686683,380.0045776,0.4640377462,380.0045776,0.6190989614,
378.9979858,-8.940093539E-005,378.9979858,0.6163829565,378.9979858,0.4573530555,378.9979858,0.6105543971,
377.9912109,0.0001273776434,377.9912109,0.6108327508,377.9912109,0.4500806034,377.9912109,0.6029825211,
376.9842834,0.0001741698361,376.9842834,0.6026058793,376.9842834,0.4439681172,376.9842834,0.5962466002,
376.0158997,0.0001350163075,376.0158997,0.5968050361,376.0158997,0.4383769929,376.0158997,0.5898262858,
375.008667,-0.000353096344,375.008667,0.591802299,375.008667,0.4323914051,375.008667,0.5851048827,
374.0012817,0.0002015690261,374.0012817,0.586039722,374.0012817,0.4274462163,374.0012817,0.5791859627,
372.9937439,0.0005338118644,372.9937439,0.582468152,372.9937439,0.4239392877,372.9937439,0.5755977035,
371.9860535,0.0005883722333,371.9860535,0.5779844522,371.9860535,0.4183713496,371.9860535,0.5697317719,
371.0169373,-0.0004119092191,371.0169373,0.5733582973,371.0169373,0.4136989713,371.0169373,0.5667382479,
370.0089722,-0.0007431195118,370.0089722,0.5707082748,370.0089722,0.410575062,370.0089722,0.563164711,
369.0007935,0.0002674325951,369.0007935,0.5666291118,369.0007935,0.4071188867,369.0007935,0.5599745512,
367.9925232,-9.577702258E-006,367.9925232,0.5637788773,367.9925232,0.4029488266,367.9925232,0.5553385019,
366.9840393,-0.0003943748015,366.9840393,0.558806479,366.9840393,0.398509264,366.9840393,0.552179873,
366.0142517,-0.0001284271857,366.0142517,0.5557925701,366.0142517,0.3931055069,366.0142517,0.5483431816,
365.0055542,5.415682244E-005,365.0055542,0.5521038175,365.0055542,0.3889724016,365.0055542,0.5430439711,
363.9966431,-0.0003559414763,363.9966431,0.546879828,363.9966431,0.3850100338,363.9966431,0.5384161472,
362.9876099,-0.0002222000767,362.9876099,0.5417445898,362.9876099,0.3796949983,362.9876099,0.533287704,
362.0172424,-0.0006932421238,362.0172424,0.5353605747,362.0172424,0.3744008839,362.0172424,0.5274115801,
361.0079041,0.000157208051,361.0079041,0.5296527743,361.0079041,0.3697708249,361.0079041,0.5214473605,
359.9984436,-0.0008489542524,359.9984436,0.5235416889,359.9984436,0.3641195297,359.9984436,0.5159894228,
358.9888,-0.0004564920382,358.9888,0.5168087482,358.9888,0.3578377366,358.9888,0.5068399906,
358.0178833,0.000218636138,358.0178833,0.5088049173,358.0178833,0.3514150679,358.0178833,0.5002482533,
357.0079651,0.0001256945689,357.0079651,0.5010662675,357.0079651,0.3455760777,357.0079651,0.4924809337,
355.9979248,0.0007073921734,355.9979248,0.4917106032,355.9979248,0.3390935361,355.9979248,0.4846605361,
354.9877319,7.064855163E-005,354.9877319,0.4835598171,354.9877319,0.3328246474,354.9877319,0.4757001102,
354.0162048,-0.000832936028,354.0162048,0.4750101268,354.0162048,0.326289326,354.0162048,0.467348814,
353.0057678,8.817655907E-005,353.0057678,0.4642711878,353.0057678,0.3202517331,353.0057678,0.4588769376,
351.9951172,-0.0003444573667,351.9951172,0.455801934,351.9951172,0.3133552969,351.9951172,0.4485297501,
350.984375,-0.0003888402134,350.984375,0.4461245537,350.984375,0.3070382178,350.984375,0.4393305182,
350.0123291,0.0001245552558,350.0123291,0.4384157956,350.0123291,0.3018430173,350.0123291,0.4289639592,
349.0012512,0.0007611445617,349.0012512,0.4281313717,349.0012512,0.2946397066,349.0012512,0.421682775,
347.9900513,9.286289423E-005,347.9900513,0.419187218,347.9900513,0.2893384993,347.9900513,0.4097684026,
347.0176392,0.0003036708804,347.0176392,0.4086577594,347.0176392,0.2818339765,347.0176392,0.4000063837,
346.0061646,0.0002810054284,346.0061646,0.3981502354,346.0061646,0.2762764096,346.0061646,0.3914015591,
344.9945374,0.0006400619168,344.9945374,0.3895711899,344.9945374,0.2708118856,344.9945374,0.3820707202,
343.9827881,0.0005657955771,343.9827881,0.381198436,343.9827881,0.2648599744,343.9827881,0.3729071915,
343.0098267,-0.0005152391968,343.0098267,0.3711621165,343.0098267,0.2583502829,343.0098267,0.3639748096,
341.9977722,-0.0001494916214,341.9977722,0.3624743819,341.9977722,0.254073441,341.9977722,0.3548265696,
340.9856262,0.0004714581009,340.9856262,0.3535135984,340.9856262,0.2489043772,340.9856262,0.3460291028,
340.0122375,0.0007562694955,340.0122375,0.3472321033,340.0122375,0.2443286031,340.0122375,0.3382312953,
338.9998169,-0.0003491131356,338.9998169,0.3369188607,338.9998169,0.2384394556,338.9998169,0.3294942677,
337.9872437,0.000242489783,337.9872437,0.3293398619,337.9872437,0.235172376,337.9872437,0.322435379,
337.0134583,0.0003596013994,337.0134583,0.3233356774,337.0134583,0.2302220166,337.0134583,0.3151949346,
336.0006104,7.947719132E-005,336.0006104,0.3144336641,336.0006104,0.2257938385,336.0006104,0.3068612814,
334.9876099,-0.0001079828362,334.9876099,0.3073696494,334.9876099,0.2210749537,334.9876099,0.3003219664,
334.0134583,-0.000125166509,334.0134583,0.2989832163,334.0134583,0.2173032165,334.0134583,0.2919496298,
333.0002136,0.0002049098839,333.0002136,0.2932154536,333.0002136,0.2134369761,333.0002136,0.2844963074,
331.9868164,5.79366606E-005,331.9868164,0.2854943275,331.9868164,0.2093744427,331.9868164,0.2783664763,
331.0122681,0.000246323063,331.0122681,0.2791132033,331.0122681,0.2067813724,331.0122681,0.2722350955,
329.9985962,-8.422477549E-005,329.9985962,0.2729629576,329.9985962,0.2035672516,329.9985962,0.266261369,
328.9848022,0.000723104924,328.9848022,0.2661762834,328.9848022,0.2001709342,328.9848022,0.2596604228,
328.0098877,-0.0007932495209,328.0098877,0.258985281,328.0098877,0.1953279227,328.0098877,0.2528397441,
326.9958801,0.0001534014445,326.9958801,0.2540050447,326.9958801,0.1923404634,326.9958801,0.247266233,
325.9816589,0.0004498462949,325.9816589,0.2482211292,325.9816589,0.1893487573,325.9816589,0.2420097888,
325.0063477,5.599495853E-005,325.0063477,0.2435071468,325.0063477,0.1866283268,325.0063477,0.2365211397,
323.9918823,0.0007085589459,323.9918823,0.2387380898,323.9918823,0.1841772795,323.9918823,0.2327810079,
323.0163574,0.0005691651604,323.0163574,0.2340397388,323.0163574,0.1817845702,323.0163574,0.228734374,
322.0016479,0.0001001643614,322.0016479,0.2290051281,322.0016479,0.1789136678,322.0016479,0.2232280523,
320.9867859,0.0006569129764,320.9867859,0.225578472,320.9867859,0.1768502444,320.9867859,0.2193518877,
320.0108643,-0.0007519572973,320.0108643,0.2220081389,320.0108643,0.175228551,320.0108643,0.2162359804,
318.9957581,0.0009326107684,318.9957581,0.2191828638,318.9957581,0.1737093776,318.9957581,0.2133642435,
317.9805298,0.001011220971,317.9805298,0.2171749771,317.9805298,0.1718997955,317.9805298,0.2114480436,
317.0042419,-0.001164083602,317.0042419,0.2144301981,317.0042419,0.170089379,317.0042419,0.2085826695,
315.9887695,0.000535522413,315.9887695,0.2132622004,315.9887695,0.1703863442,315.9887695,0.2077069283,
315.012207,0.0007062513032,315.012207,0.2124416679,315.012207,0.1687504351,315.012207,0.2066893727,
313.99646,-0.0002345153189,313.99646,0.2114640921,313.99646,0.1692294925,313.99646,0.2057534158,
312.9806213,-0.0003092789557,312.9806213,0.2122659087,312.9806213,0.1697734296,312.9806213,0.2059882879,
312.0037231,-0.0005470917094,312.0037231,0.2118917406,312.0037231,0.1703042686,312.0037231,0.2066436261,
310.9876099,-0.000346630055,310.9876099,0.2142764032,310.9876099,0.1713835299,310.9876099,0.2094327956,
310.010437,0.0001736001141,310.010437,0.2172290236,310.010437,0.1741690487,310.010437,0.2107460201,
308.9940796,-0.001170589356,308.9940796,0.2212712169,308.9940796,0.1790639609,308.9940796,0.2138382792,
308.0166931,0.0001326599595,308.0166931,0.2266197801,308.0166931,0.1850436479,308.0166931,0.219937548,
307.0000916,-0.0004578366934,307.0000916,0.2316544056,307.0000916,0.1918433309,307.0000916,0.2259707749,
305.9833374,0.0005965374876,305.9833374,0.2428722233,305.9833374,0.2026189566,305.9833374,0.2380705923,
305.0056152,5.832500392E-005,305.0056152,0.2541002631,305.0056152,0.2181138396,305.0056152,0.2453624904,
303.9886475,0.001652983949,303.9886475,0.2659535706,303.9886475,0.2360798866,303.9886475,0.2583096325,
303.0106506,0.002282633213,303.0106506,0.2867973745,303.0106506,0.2539049387,303.0106506,0.2774960101,
301.9934387,-0.001031262334,301.9934387,0.2944046855,301.9934387,0.2753878534,301.9934387,0.2885259092,
301.0151978,0.0004892355064,301.0151978,0.3207817078,301.0151978,0.3052735925,301.0151978,0.3116042912,
299.9977722,-0.002344159875,299.9977722,0.3383255601,299.9977722,0.3354679942,299.9977722,0.330932498,
299.0193176,0.002539420035,299.0193176,0.3646580279,299.0193176,0.3796393871,299.0193176,0.3527422845,
298.0016174,0.002434864873,298.0016174,0.3865923285,298.0016174,0.4268654287,298.0016174,0.3772194386,
296.9837952,0.01185013261,296.9837952,0.4224666357,296.9837952,0.4672470093,296.9837952,0.420874536,
296.0050049,0.03067379072,296.0050049,0.4707755744,296.0050049,0.5307376981,296.0050049,0.4738849103,
294.9869385,0.01733828895,294.9869385,0.5029949546,294.9869385,0.5883055329,294.9869385,0.5011584759,
294.0079346,0.009598215111,294.0079346,0.5235689878,294.0079346,0.657491982,294.0079346,0.5615443587,
292.9896545,0.01855840534,292.9896545,0.5811706185,292.9896545,0.7438832521,292.9896545,0.5884175897,
292.010376,0.0006354734069,292.010376,0.6300091743,292.010376,0.8487486243,292.010376,0.6270554662,
290.9918518,-0.0001287377236,290.9918518,0.664524734,290.9918518,0.8994832635,290.9918518,0.6547138691,
290.0123901,-0.001301096985,290.0123901,0.6853995919,290.0123901,0.9400761127,290.0123901,0.677638948,
288.9936218,0.02071629278,288.9936218,0.7255625129,288.9936218,0.9979811907,288.9936218,0.7171173692,
288.013916,-0.02321852744,288.013916,0.7487300634,288.013916,1.034449577,288.013916,0.6948569417,
286.9949341,-0.02350141108,286.9949341,0.7769352794,286.9949341,1.126695156,286.9949341,0.7521085739,
286.0150146,-0.03137087077,286.0150146,0.776717186,286.0150146,1.166308999,286.0150146,0.7844751477,
284.9957886,0.00444066152,284.9957886,0.8951427937,284.9957886,1.264808059,284.9957886,0.8175010681,
284.015625,-0.004430230707,284.015625,0.8420996666,284.015625,1.234186888,284.015625,0.8807892203,
282.9962158,-0.007657450158,282.9962158,0.8207240105,282.9962158,1.226271152,282.9962158,0.773137629,
282.0158691,-0.05610464141,282.0158691,0.6405635476,282.0158691,1.047049284,282.0158691,0.7339106202,
280.9961548,0.06215047091,280.9961548,0.7163316011,280.9961548,0.7440931797,280.9961548,0.5641382933,
280.0155945,0.07062954456,280.0155945,0.1961863041,280.0155945,0.2373585999,280.0155945,0.2517121732,
278.995697,0.1264169216,278.995697,0.4415692687,278.995697,0.5474972725,278.995697,0.05262872949,
278.0149231,0.1980035603,278.0149231,10,278.0149231,0.7038452029,278.0149231,0.4092919528,
276.9947815,-0.4976983964,276.9947815,-0.2428866476,276.9947815,-0.2680035532,276.9947815,-0.1703262627,
276.0137939,-0.4938699603,276.0137939,0.2927777469,276.0137939,-0.4637042284,276.0137939,-0.596157074,
274.9934387,-1.005482197,274.9934387,-0.4970587194,274.9934387,-0.7296025157,274.9934387,-0.01842157729,
274.0122375,-0.1373319924,274.0122375,10,274.0122375,0.3294735551,274.0122375,0.05529497191,
272.9916687,0.1287081987,272.9916687,0.5674694777,272.9916687,0.3010103703,272.9916687,-0.3213492334,
272.0102539,0.3275332749,272.0102539,0.2245825082,272.0102539,0.01422154065,272.0102539,10,
270.9894409,-0.2702414691,270.9894409,-0.363463223,270.9894409,0.4832733274,270.9894409,10,
270.0078125,-0.03120279126,270.0078125,10,270.0078125,-0.2308950126,270.0078125,-0.1280876696,
268.9868164,3.551526308,268.9868164,3.615306854,268.9868164,10,268.9868164,4.169924259,
268.0049744,-0.1654563397,268.0049744,-0.384285152,268.0049744,-0.07129995525,268.0049744,10,
266.9837646,0.4328667521,266.9837646,0.003143682145,266.9837646,-0.1577214599,266.9837646,0.9411503077,
266.001709,-0.7115166187,266.001709,-0.832644105,266.001709,-1.0277493,266.001709,-0.428049773,
265.0195618,10,265.0195618,0.07999409735,265.0195618,10,265.0195618,0.1791528016,
263.9980469,-0.8342326283,263.9980469,10,263.9980469,-0.6661263108,263.9980469,10,
263.0157166,-0.2138519138,263.0157166,-0.3242577016,263.0157166,10,263.0157166,-0.02498268336,
261.9939575,3.508462429,261.9939575,4.29269886,261.9939575,3.734106064,261.9939575,3.968272686,
261.0113831,0.2831068039,261.0113831,10,261.0113831,0.3193675876,261.0113831,0.2236831337,
259.9894409,4.03622961,259.9894409,4.50496006,259.9894409,3.990368366,259.9894409,4.448489666,
259.0067139,-0.379884541,259.0067139,10,259.0067139,-0.3468393683,259.0067139,-0.3791853487,
257.9845276,0.8408757448,257.9845276,0.4980137646,257.9845276,-0.04848557338,257.9845276,0.217260778,
257.0015869,-0.3428379297,257.0015869,0.2474002391,257.0015869,0.07149738818,257.0015869,10,
256.0185242,0.1062946096,256.0185242,-0.1141964644,256.0185242,-0.02714628726,256.0185242,-0.1005773321,
254.9960938,-0.6436730623,254.9960938,-0.6920365095,254.9960938,-0.5020290017,254.9960938,-0.6856902838,
254.0128326,0.1084151715,254.0128326,0.2548795938,254.0128326,0.37168625,254.0128326,-0.01156341564,
252.9901428,-0.3822679818,252.9901428,-0.4220995009,252.9901428,-0.2666319907,252.9901428,10,
252.0067139,0.3621367216,252.0067139,0.3189679682,252.0067139,0.2911643386,252.0067139,0.7680211663,
250.9838104,-0.11730396,250.9838104,-0.3926505446,250.9838104,-0.2247224003,250.9838104,10,
250.0001678,0.3626716733,250.0001678,0.3415995538,250.0001678,10,250.0001678,0.1917277575,
249.0164642,-0.01175594516,249.0164642,0.523876071,249.0164642,0.02917723171,249.0164642,-0.0008303006762,
247.9933014,-0.0963434279,247.9933014,-0.3467541337,247.9933014,-0.4137603343,247.9933014,-0.3156072199,
247.0093842,-0.343303293,247.0093842,-0.5457251072,247.0093842,-0.3736951053,247.0093842,-0.9201641083,
245.9859924,0.7507371902,245.9859924,0.412686646,245.9859924,0.3206140995,245.9859924,0.6337518692,
245.0018921,-0.4566367865,245.0018921,10,245.0018921,10,245.0018921,-0.478800565,
244.0176697,0.3782830536,244.0176697,0.7849629521,244.0176697,0.5816013217,244.0176697,0.8719444275,
242.9940338,-0.1304497272,242.9940338,0.1296184957,242.9940338,0.3784573078,242.9940338,0.08391640335,
242.0096436,0.2664868534,242.0096436,0.6724644899,242.0096436,0.4939062595,242.0096436,0.3311644793,
240.9857635,0.01116505917,240.9857635,0.2425518185,240.9857635,0.5131545067,240.9857635,-0.1029422209,
240.0011749,-0.303106159,240.0011749,10,240.0011749,0.1082384437,240.0011749,0.1421130151,
239.0165253,0.1669495255,239.0165253,0.4574022591,239.0165253,1.508465052,239.0165253,0.608207047,
237.9924011,-0.5575045943,237.9924011,-0.008771839552,237.9924011,-0.1160966381,237.9924011,-0.2980515063,
237.0075378,-0.06783320755,237.0075378,-0.0153886443,237.0075378,0.08581119031,237.0075378,0.1013421193,
235.9832001,-0.3886548877,235.9832001,-0.5371029377,235.9832001,0.1058970019,235.9832001,-0.5235986114,
234.9981842,0.08969479799,234.9981842,-0.2028145045,234.9981842,10,234.9981842,10,
234.013031,0.2736270428,234.013031,10,234.013031,0.485098362,234.013031,10,
232.9884338,-0.4893863797,232.9884338,10,232.9884338,10,232.9884338,10,
232.0031281,0.6099539399,232.0031281,0.03726359084,232.0031281,10,232.0031281,0.1382217854,
231.017746,10,231.017746,0.229988277,231.017746,10,231.017746,-0.03174200654,
229.9928284,-0.1517021507,229.9928284,10,229.9928284,-0.2988478541,229.9928284,10,
229.0072784,3.131297827,229.0072784,3.187238693,229.0072784,2.849419355,229.0072784,3.121231556,
227.982193,-0.1788784713,227.982193,-0.2084818929,227.982193,0.2393782288,227.982193,0.294513166,
226.9964294,-0.1300061494,226.9964294,-0.0873445943,226.9964294,0.2268402576,226.9964294,0.1853203326,
226.0106049,0.2675599158,226.0106049,0.2172518075,226.0106049,0.5188619494,226.0106049,0.8661724925,
224.9852905,0.03810590878,224.9852905,-0.06723485887,224.9852905,-0.1589977592,224.9852905,0.6448449492,
223.9992676,10,223.9992676,-0.2969202995,223.9992676,-0.1374691874,223.9992676,10,
223.0131836,-0.5381163359,223.0131836,-0.4555124342,223.0131836,-0.3389599621,223.0131836,-0.6229268312,
221.9875793,-0.0257562194,221.9875793,10,221.9875793,0.1622502357,221.9875793,0.1242669821,
221.0013275,0.8807189465,221.0013275,0.2645921111,221.0013275,0.1015596241,221.0013275,0.6135361791,
220.0149689,0.001162332599,220.0149689,0.1919109821,220.0149689,0.1683662236,220.0149689,0.2639677525,
218.98909,0.4235709012,218.98909,-0.0009430883219,218.98909,0.05530155823,218.98909,0.2262599766,
218.0025787,-0.6559273601,218.0025787,-0.3713871241,218.0025787,-0.2585499883,218.0025787,-0.05657256022,
217.015976,0.1414822638,217.015976,-0.07120913267,217.015976,-0.09257601947,217.015976,0.09270384163,
215.9898376,-0.3076483607,215.9898376,-0.2684025764,215.9898376,-0.4742715061,215.9898376,0.09980706871,
215.003067,-0.5045468211,215.003067,-0.6201876402,215.003067,-0.7468311191,215.003067,-0.5408164859,
214.0162354,0.1224929616,214.0162354,0.1551588327,214.0162354,0.8270587921,214.0162354,0.1636360884,
212.9898224,-0.1010509729,212.9898224,-0.3419541419,212.9898224,10,212.9898224,-0.1542315185,
212.0028229,-0.1939245462,212.0028229,0.003169913311,212.0028229,0.3935610354,212.0028229,0.1643502414,
211.0157318,-0.9659028053,211.0157318,-0.2682513893,211.0157318,-0.962330699,211.0157318,-0.9407610893,
209.98909,-0.08562465012,209.98909,0.3753715456,209.98909,0.4776743948,209.98909,0.6024571657,
209.0018311,0.1623096317,209.0018311,-0.01818784513,209.0018311,10,209.0018311,0.576603055,
208.0145111,0.2055012137,208.0145111,0.3040376306,208.0145111,0.4202952683,208.0145111,0.2904491127,
206.9876099,-0.3030771315,206.9876099,0.641980052,206.9876099,-0.238733381,206.9876099,-0.2189505249,
206.0001221,10,206.0001221,-0.4417380989,206.0001221,-0.4204353094,206.0001221,-0.4114303887,
205.0125427,0.1863853931,205.0125427,-0.08029525727,205.0125427,0.114683874,205.0125427,10,
203.9854279,-0.3235818446,203.9854279,0.5212541223,203.9854279,-0.229038626,203.9854279,0.6129714251,
202.9976807,0.0944429785,202.9976807,-0.1608558893,202.9976807,10,202.9976807,0.2500575483,
202.0098877,-0.1210843101,202.0098877,-0.07072818279,202.0098877,0.5717331171,202.0098877,-0.135666281,
200.9824982,-0.01751811616,200.9824982,-0.2647065818,200.9824982,10,200.9824982,0.7687891722,
199.9945374,0.2091415375,199.9945374,0.02773285471,199.9945374,10,199.9945374,0.9603852034,

baseline,
baseline
Collection Time: 23/04/2022 16:48:10
Operator Name  :
Scan Version 5.0.0.999
Parameter List :
Instrument  Cary 60
Instrument Version  2.00
Start (nm)  800.0
Stop (nm)  200.0
X Mode  Nanometers
Y Mode  Abs
UV-Vis Scan Rate (nm/min)  4800.000
UV-Vis Data Interval (nm)  1.00
UV-Vis Ave. Time (sec)  0.0125
Beam Mode  Dual Beam
Baseline Correction  On
Baseline Type  Baseline correction
Baseline File Name
Baseline Std Ref File Name
Cycle Mode  Off
Method Log     :
Method Name    :
Date/Time stamp: 23/04/2022 16:47:30
Method Modifications:
Common Interval nm Changed: 23/04/2022 16:47:53, Old:     5.00, New:     1.00
Baseline Correction Changed: 23/04/2022 16:47:53, Old:0, New:1
Storage Changed: 23/04/2022 16:47:53, Old:1, New:0
End Method Modifications
<Current Wavelength> , 208.0

bm3-a82f-f87v-heme-10in1000-tube-dm,
bm3-a82f-f87v-heme-10in1000-tube-dm
Collection Time: 23/04/2022 16:54:29
Operator Name  :
Scan Version 5.0.0.999
Parameter List :
Instrument  Cary 60
Instrument Version  2.00
Start (nm)  800.0
Stop (nm)  200.0
X Mode  Nanometers
Y Mode  Abs
UV-Vis Scan Rate (nm/min)  4800.000
UV-Vis Data Interval (nm)  1.00
UV-Vis Ave. Time (sec)  0.0125
Beam Mode  Dual Beam
Baseline Correction  On
Baseline Type  Baseline correction
Baseline File Name
Baseline Std Ref File Name
Cycle Mode  Off
Method Log     :
Method Name    :
Date/Time stamp: 23/04/2022 16:47:30
Method Modifications:
Common Interval nm Changed: 23/04/2022 16:47:53, Old:     5.00, New:     1.00
Baseline Correction Changed: 23/04/2022 16:47:53, Old:0, New:1
Storage Changed: 23/04/2022 16:47:53, Old:1, New:0
End Method Modifications
<Current Wavelength> , 226.0

bm3-a82f-f87v-heme-10in1000-tube-60,
bm3-a82f-f87v-heme-10in1000-tube-60
Collection Time: 23/04/2022 16:54:50
Operator Name  :
Scan Version 5.0.0.999
Parameter List :
Instrument  Cary 60
Instrument Version  2.00
Start (nm)  800.0
Stop (nm)  200.0
X Mode  Nanometers
Y Mode  Abs
UV-Vis Scan Rate (nm/min)  4800.000
UV-Vis Data Interval (nm)  1.00
UV-Vis Ave. Time (sec)  0.0125
Beam Mode  Dual Beam
Baseline Correction  On
Baseline Type  Baseline correction
Baseline File Name
Baseline Std Ref File Name
Cycle Mode  Off
Method Log     :
Method Name    :
Date/Time stamp: 23/04/2022 16:47:30
Method Modifications:
Common Interval nm Changed: 23/04/2022 16:47:53, Old:     5.00, New:     1.00
Baseline Correction Changed: 23/04/2022 16:47:53, Old:0, New:1
Storage Changed: 23/04/2022 16:47:53, Old:1, New:0
End Method Modifications
<Current Wavelength> , 268.0

bm3-a82f-f87v-heme-10in1000-tube-65,
bm3-a82f-f87v-heme-10in1000-tube-65
Collection Time: 23/04/2022 16:55:11
Operator Name  :
Scan Version 5.0.0.999
Parameter List :
Instrument  Cary 60
Instrument Version  2.00
Start (nm)  800.0
Stop (nm)  200.0
X Mode  Nanometers
Y Mode  Abs
UV-Vis Scan Rate (nm/min)  4800.000
UV-Vis Data Interval (nm)  1.00
UV-Vis Ave. Time (sec)  0.0125
Beam Mode  Dual Beam
Baseline Correction  On
Baseline Type  Baseline correction
Baseline File Name
Baseline Std Ref File Name
Cycle Mode  Off
Method Log     :
Method Name    :
Date/Time stamp: 23/04/2022 16:47:30
Method Modifications:
Common Interval nm Changed: 23/04/2022 16:47:53, Old:     5.00, New:     1.00
Baseline Correction Changed: 23/04/2022 16:47:53, Old:0, New:1
Storage Changed: 23/04/2022 16:47:53, Old:1, New:0
End Method Modifications
<Current Wavelength> , 211.0

