baseline,,bm3-a82f-f87v-heme-60-post-lipidex-20in1000,,bm3-a82f-f87v-heme-60-post-lipidex-post-dilution,,
Wavelength (nm),Abs,Wavelength (nm),Abs,Wavelength (nm),Abs,
799.9969482,0.0004163682461,799.9969482,0.003954036161,799.9969482,-0.0002910678159,
798.9923096,-0.0002807719866,798.9923096,0.004793490749,798.9923096,-0.0009936084971,
797.9871826,5.801433144E-005,797.9871826,0.002931882394,797.9871826,-0.0003730118915,
797.0163574,-0.0003506650392,797.0163574,0.004447121173,797.0163574,0.0007638933021,
796.010437,-0.0003888402134,796.010437,0.005184250418,796.010437,-0.0006575750303,
795.0041504,-0.0006431005313,795.0041504,0.002487868303,795.0041504,-0.001551470719,
793.9974365,-0.001000633347,793.9974365,0.004808357451,793.9974365,0.0003371143539,
792.9903564,0.001338449307,792.9903564,0.004232306033,792.9903564,-0.0003266615677,
791.9828491,-0.0006721006939,791.9828491,0.003896543989,791.9828491,-0.0007108678692,
791.0097046,0.001114006503,791.0097046,0.00408163853,791.0097046,-0.0002598173742,
790.0013428,-0.0008604766917,790.0013428,0.005571821705,790.0013428,0.0007129926817,
788.9926758,0.001489103539,788.9926758,0.005753277335,788.9926758,-0.001275184448,
787.9835815,0.0001965448464,787.9835815,0.005598724354,787.9835815,0.0002580562141,
787.0089111,5.710820187E-005,787.0089111,0.004154025577,787.0089111,-9.732033504E-005,
785.9989624,-0.0003024498583,785.9989624,0.002848181408,785.9989624,0.0003457152343,
784.9887695,-0.0009564679349,784.9887695,0.00357821444,784.9887695,-0.001464485889,
784.0128784,0.0008640005835,784.0128784,0.004589858465,784.0128784,-0.0008405318367,
783.001709,-0.0009696405614,783.001709,0.003610344836,783.001709,-0.001919287257,
781.9902954,-0.0008331427234,781.9902954,0.004193699919,781.9902954,-0.001941914321,
781.0134277,0.0006899428554,781.0134277,0.003451203695,781.0134277,0.0005399025977,
780.0010986,-3.820600978E-005,780.0010986,0.00387794734,780.0010986,-0.0003059161536,
778.9884644,0.0003394199884,778.9884644,0.005607430357,778.9884644,0.0006092133117,
778.010376,-6.781594129E-005,778.010376,0.004696268123,778.010376,-0.0003789087932,
776.9969482,-0.0006405157619,776.9969482,0.004518706352,776.9969482,-0.0003330764303,
775.9831543,-0.001104649622,775.9831543,0.004975878168,775.9831543,0.0004210322222,
775.0039063,-0.0002930855553,775.0039063,0.004476072732,775.0039063,-0.0008180540171,
773.9893188,-9.783793939E-005,773.9893188,0.004707179964,773.9893188,0.0005873872433,
773.0093384,-0.0002963967272,773.0093384,0.004931183998,773.0093384,-0.0006900373846,
771.9940186,-0.0001604115969,771.9940186,0.005224202294,771.9940186,0.0005787038244,
771.0132446,-0.0009318263619,771.0132446,0.00359760737,771.0132446,6.523753837E-005,
769.9971313,-0.001111569349,769.9971313,0.004799432121,769.9971313,0.0003064685443,
769.015686,-0.0006056198035,769.015686,0.005430989433,769.015686,-0.0001469039125,
767.9988403,-0.000248278986,767.9988403,0.004127238411,767.9988403,-0.0009176710155,
767.0166626,-0.0006959816674,767.0166626,0.00371027505,767.0166626,-0.0001607221202,
765.9989624,0.0004644613364,765.9989624,0.005194152705,765.9989624,-0.0007264254382,
765.0160522,0.0002262764174,765.0160522,0.005551265553,765.0160522,0.0008424989064,
763.9975586,-0.0005783732049,763.9975586,0.004565869458,763.9975586,-0.0003214882454,
763.0139771,0.001133912476,763.0139771,0.004615601618,763.0139771,5.837678327E-005,
761.994751,-0.0001824577485,761.994751,0.005103938282,761.994751,0.0005358334747,
761.010376,-0.001446065144,761.010376,0.003708969802,761.010376,0.0004445341765,
759.9904785,-0.0009155012085,759.9904785,0.00398880709,759.9904785,-0.0009916456183,
759.0053101,2.425582898E-005,759.0053101,0.004941761494,759.0053101,-0.0003375253873,
757.9846191,-0.0003142454952,757.9846191,0.003848121502,757.9846191,-0.0007860146579,
756.9987793,0.0008906133007,756.9987793,0.005994566251,756.9987793,0.001447389834,
756.0124512,-0.0008764939266,756.0124512,0.004007225391,756.0124512,-0.0004610948672,
754.9906616,0.001082423492,754.9906616,0.005415760912,754.9906616,0.0003835404932,
754.0037231,-0.0006757708034,754.0037231,0.004322365858,754.0037231,-0.0005278564058,
753.0164185,0.00032203726,753.0164185,0.006084204651,753.0164185,0.001356132445,
751.9934692,-5.02158764E-005,751.9934692,0.006039895117,751.9934692,0.001275071292,
751.0054321,0.0001517959608,751.0054321,0.005028276239,751.0054321,0.0006678794161,
750.0170288,0.0002187397331,750.0170288,0.004586509895,750.0170288,0.0005103828153,
748.992981,-0.0001238725818,748.992981,0.004503273871,748.992981,0.0005190130323,
748.0039063,-0.001093701692,748.0039063,0.004859819077,748.0039063,7.062266377E-005,
747.0144043,0.0004947554553,747.0144043,0.005457805004,747.0144043,-3.639414717E-005,
745.9891968,-0.0001697270054,745.9891968,0.004995516967,745.9891968,0.0004232346546,
744.9990845,-0.0001820954931,744.9990845,0.004714637995,744.9990845,-0.0001548740111,
744.0085449,-1.522068305E-005,744.0085449,0.004683367908,744.0085449,3.624186866E-005,
743.0176392,-5.316652459E-005,743.0176392,0.005492486525,743.0176392,0.001035377616,
741.9910278,5.278469689E-005,741.9910278,0.005609659012,741.9910278,0.001494869939,
740.9993896,-0.00161919964,740.9993896,0.004897908773,740.9993896,-0.0003034845868,
740.0074463,0.0002946822788,740.0074463,0.00576306181,740.0074463,0.0002790627186,
739.0151367,0.0004759671574,739.0151367,0.005619859789,739.0151367,0.001388436533,
737.9871216,0.0007000545738,737.9871216,0.005380325485,737.9871216,0.000246582058,
736.9940796,0.0005914827925,736.9940796,0.006161311176,736.9940796,0.001068462268,
736.0006714,0.0001685762545,736.0006714,0.005383365788,736.0006714,0.0008437179495,
735.007019,0.0005730013363,735.007019,0.005669817794,735.007019,0.001705476199,
734.0129395,0.0001595904323,734.0129395,0.006267502904,734.0129395,0.0006838759291,
732.9830322,-0.0007190343458,732.9830322,0.005746431183,732.9830322,0.0003108981764,
731.9882202,0.0001841918274,731.9882202,0.005081701558,731.9882202,0.0004856592277,
730.993103,3.323885539E-005,730.993103,0.006227717269,730.993103,0.0005608968204,
729.9976807,6.580711488E-005,729.9976807,0.005344237667,729.9976807,0.00066533871,
729.0018921,-0.0008947321912,729.0018921,0.005386065226,729.0018921,0.0004023507354,
728.0057373,-0.0002216826106,728.0057373,0.004758550785,728.0057373,0.0007761591114,
727.0092773,-0.0005648267688,727.0092773,0.006061445456,727.0092773,0.0003591091663,
726.0124512,-0.0003181255597,726.0124512,0.005790028721,726.0124512,0.0006111574476,
725.0152588,-0.0004639910185,725.0152588,0.005794750992,725.0152588,0.0007302613812,
724.0177612,0.0004154095368,724.0177612,0.00641183788,724.0177612,0.001027230173,
722.9842529,0.0001230016496,722.9842529,0.005629929714,722.9842529,0.001024401863,
721.9860229,-0.0003479233419,721.9860229,0.005773790646,721.9860229,0.0008708481328,
720.9874878,0.0002812903549,720.9874878,0.006047349423,720.9874878,0.0005771745346,
719.9885254,-0.0007835340803,719.9885254,0.005553153343,719.9885254,0.0002279857872,
718.9894409,0.0002100636484,718.9894409,0.005622613244,718.9894409,0.001427521463,
717.9898071,0.0003250940936,717.9898071,0.0063166162,717.9898071,0.001147849835,
716.9898682,-1.827510823E-005,716.9898682,0.00645245472,716.9898682,0.0009704871336,
715.989624,-0.0002815997868,715.989624,0.006159341894,715.989624,0.001185952569,
714.9890137,0.0007234679069,714.9890137,0.005911873654,714.9890137,0.001445493894,
713.9880981,-0.000409736851,713.9880981,0.006067010574,713.9880981,0.001363195595,
712.9868164,-0.0007369174273,712.9868164,0.006047533359,712.9868164,0.0008201943128,
711.9852905,0.0006395175005,711.9852905,0.006957198028,711.9852905,0.001779079903,
710.9832764,-0.0001165747526,710.9832764,0.006315039936,710.9832764,0.001098746667,
710.0167847,-0.0004848840472,710.0167847,0.005708162207,710.0167847,0.0009349454776,
709.0142212,-8.934917423E-005,709.0142212,0.006451325025,709.0142212,0.001253782888,
708.0112915,-9.307597065E-005,708.0112915,0.006461913232,708.0112915,0.001073133317,
707.0079956,0.0006220191135,707.0079956,0.006462937687,707.0079956,0.001779963612,
706.0043945,-0.0002101432183,706.0043945,0.00672870269,706.0043945,0.002008833922,
705.0004272,-0.0003858401033,705.0004272,0.006128755398,705.0004272,0.001160931075,
703.9962158,0.0001537639764,703.9962158,0.006526841316,703.9962158,0.001618867391,
702.9915771,3.155614104E-005,702.9915771,0.005693920422,702.9915771,0.00145442842,
701.9866943,0.0005379586946,701.9866943,0.007099341601,701.9866943,0.002433120739,
701.0172729,-0.0004564920382,701.0172729,0.006144061685,701.0172729,0.0009033496026,
700.0117188,-0.0002506591263,700.0117188,0.006821832154,700.0117188,0.001321753603,
699.0057373,-5.60653898E-005,699.0057373,0.006924029905,699.0057373,0.001975807594,
697.9995728,4.61571326E-005,697.9995728,0.006497331895,697.9995728,0.001363013755,
696.992981,-0.0001254252857,696.992981,0.006524423603,696.992981,0.0009823436849,
695.9860229,0.0005475485232,695.9860229,0.006433669478,695.9860229,0.001843597391,
695.0147705,-0.0006376208039,695.0147705,0.005735519342,695.0147705,0.0006434839452,
694.0072632,-0.0001619641844,694.0072632,0.006386933848,694.0072632,0.002351285657,
692.9993286,5.537361722E-005,692.9993286,0.007469612174,692.9993286,0.001834966824,
691.9911499,-0.0002538154076,691.9911499,0.006887813564,691.9911499,0.001395188505,
690.982605,-0.0003300759417,690.982605,0.006911536679,690.982605,0.001805150881,
690.0097656,-0.0008561364375,690.0097656,0.006502639968,690.0097656,0.00219939556,
689.0006104,8.970414638E-005,689.0006104,0.005874298513,689.0006104,0.002193021355,
687.9911499,-0.0005892823683,687.9911499,0.00572867319,687.9911499,0.001019757357,
687.017334,0.0007929894491,687.017334,0.00672165677,687.017334,0.002314615995,
686.0071411,-0.0002538671251,686.0071411,0.006713612471,686.0071411,0.001421236433,
684.9967041,0.0007299761637,684.9967041,0.007211789954,684.9967041,0.002847582102,
683.9859619,-0.0001434880978,683.9859619,0.006899333093,683.9859619,0.001460428233,
683.0109253,-0.0004461483913,683.0109253,0.006565918215,683.0109253,0.00181513268,
681.9994507,0.000360611768,681.9994507,0.007479409222,681.9994507,0.001789294998,
680.9877319,-0.000938645564,680.9877319,0.007157443557,680.9877319,0.001801017905,
680.0118408,0.0001685503521,680.0118408,0.007928426377,680.0118408,0.002911997959,
678.9994507,0.0005783668603,678.9994507,0.007463555317,678.9994507,0.001668964862,
677.9866943,-0.0001024963422,677.9866943,0.006892836653,677.9866943,0.002126787091,
677.0098877,-0.001057912479,677.0098877,0.006328593008,677.0098877,0.00187398796,
675.996582,0.000282248744,675.996582,0.007289623376,675.996582,0.002457669005,
674.9829102,-0.0001526486158,674.9829102,0.007956662215,674.9829102,0.002418179065,
674.005127,-0.0001440573978,674.005127,0.007821064442,674.005127,0.001659843954,
672.9909058,-0.0006453751703,672.9909058,0.007973904721,672.9909058,0.001984831179,
672.0125122,-0.0006209744024,672.0125122,0.007887645625,672.0125122,0.001654153224,
670.9976196,0.0001228462934,670.9976196,0.007861786522,670.9976196,0.003196772188,
669.9823608,0.0001341359166,669.9823608,0.007983871736,669.9823608,0.002126891166,
669.0031738,-0.001114306273,669.0031738,0.007611818612,669.0031738,0.002422031481,
667.9873047,0.001449935138,667.9873047,0.009184296243,667.9873047,0.005032335408,
667.0074463,-0.0005775459576,667.0074463,0.008234501816,667.0074463,0.002621160122,
665.9910278,0.0003649901773,665.9910278,0.008824079297,665.9910278,0.003458927153,
665.010498,0.0007475827006,665.010498,0.0095468238,665.010498,0.004863274284,
663.9934082,-0.0005412488244,663.9934082,0.009099408984,663.9934082,0.003611650085,
663.0124512,0.0005126375472,663.0124512,0.009727883153,663.0124512,0.004421675578,
661.994751,-0.0005339580239,661.994751,0.008372419514,661.994751,0.003662160598,
661.0130615,-8.251662803E-005,661.0130615,0.009501921013,661.0130615,0.004867227282,
659.9946899,-0.0001690542413,659.9946899,0.009422156028,659.9946899,0.004026793875,
659.0125122,-0.0001607221202,659.0125122,0.009634525515,659.0125122,0.004467337392,
657.9935913,0.0008665684145,657.9935913,0.01040125266,657.9935913,0.006137734279,
657.0107422,0.0009443624876,657.0107422,0.01060158107,657.0107422,0.004841913935,
655.991272,0.0005334230955,655.991272,0.01108501479,655.991272,0.005248096772,
655.0078125,-0.0001308597421,655.0078125,0.01049132831,655.0078125,0.005125887692,
653.9876709,-0.0006073259283,653.9876709,0.01124126744,653.9876709,0.006303037051,
653.0036621,-0.0002065209119,653.0036621,0.01093248185,653.0036621,0.005646844395,
651.9829102,0.0005693984567,651.9829102,0.01130521297,651.9829102,0.006780024152,
650.998291,-0.0005782180815,650.998291,0.01116126124,650.998291,0.005522110965,
650.0134277,-2.324497837E-005,650.0134277,0.01069220249,650.0134277,0.005305925384,
648.9918213,-0.0001856144954,648.9918213,0.01078387722,648.9918213,0.00596427964,
648.0063477,-0.0002914299839,648.0063477,0.01022404619,648.0063477,0.004869111814,
646.9840698,-0.0003909609513,646.9840698,0.01112702675,646.9840698,0.005811750423,
645.9981079,-0.0001352590043,645.9981079,0.01123892982,645.9981079,0.006116809789,
645.0117188,-0.0008374832105,645.0117188,0.01084796805,645.0117188,0.005280141253,
643.9885864,-0.0004897968611,643.9885864,0.01058208477,643.9885864,0.004926392809,
643.001709,-0.001024806174,643.001709,0.01098196674,643.001709,0.005957692396,
642.0144653,0.0007071847213,642.0144653,0.01129338983,642.0144653,0.006871534046,
640.9904785,-0.0003037949791,640.9904785,0.01085494831,640.9904785,0.006324311718,
640.0026855,-0.000304415822,640.0026855,0.01118745003,640.0026855,0.004916182254,
639.0146484,-1.325341327E-005,639.0146484,0.01093879994,639.0146484,0.004887201358,
637.9898071,-0.000700168428,637.9898071,0.01117342617,637.9898071,0.005222918466,
637.0011597,0.000411756133,637.0011597,0.01104311273,637.0011597,0.006157031748,
636.0122681,-0.0004162539262,636.0122681,0.01131515019,636.0122681,0.00531132333,
634.9864502,-7.921034012E-006,634.9864502,0.0097640194,634.9864502,0.005217181053,
633.9970093,6.060328087E-005,633.9970093,0.01008654665,633.9970093,0.005913474597,
633.0072632,4.214440196E-005,633.0072632,0.009611764923,633.0072632,0.004818199202,
632.0172729,0.000631740375,632.0172729,0.0106163295,632.0172729,0.005122011062,
630.9902954,0.0001429658441,630.9902954,0.009677403606,630.9902954,0.005114624742,
629.9996948,-3.018199095E-005,629.9996948,0.0103091551,629.9996948,0.005365648773,
629.0088501,0.0002486541343,629.0088501,0.01022738591,629.0088501,0.004921418615,
628.0177002,-4.773110413E-005,628.0177002,0.0103988396,628.0177002,0.004547767341,
626.989624,0.0001387191733,626.989624,0.01108814869,626.989624,0.004698544741,
625.9978638,0.0005372848245,625.9978638,0.01090660039,625.9978638,0.005592352711,
625.0059204,0.0002333988232,625.0059204,0.01053124107,625.0059204,0.004948699847,
624.0137329,0.0001644588046,624.0137329,0.01091841329,624.0137329,0.005786933471,
622.984375,3.753481678E-006,622.984375,0.01118811406,622.984375,0.005020053592,
621.9915771,-0.0002407245483,621.9915771,0.0102498075,621.9915771,0.004727513064,
620.9985352,0.0005942563876,620.9985352,0.01024509035,620.9985352,0.00535427453,
620.005127,-0.0004645598819,620.005127,0.009620921686,620.005127,0.004752113018,
619.0115356,0.0006633165176,619.0115356,0.01033269428,619.0115356,0.005497336388,
618.0177002,-0.0002867736039,618.0177002,0.01001326926,618.0177002,0.004667694215,
616.9866333,4.921201253E-005,616.9866333,0.01030122861,616.9866333,0.004897489678,
615.9921875,-0.0003030189546,615.9921875,0.01053810958,615.9921875,0.005134898238,
614.9974976,-4.974998228E-005,614.9974976,0.01058927365,614.9974976,0.005062295124,
614.0025024,0.0004274582025,614.0025024,0.01115401089,614.0025024,0.005514980294,
613.0072021,-0.0005254777498,613.0072021,0.0101544559,613.0072021,0.004894138779,
612.0117798,-0.0001321018935,612.0117798,0.01137299463,612.0117798,0.005999264307,
611.0159302,0.0002818861103,611.0159302,0.01114678662,611.0159302,0.006126471329,
609.9829712,0.0004957661731,609.9829712,0.01138484664,609.9829712,0.006276641972,
608.9866333,2.316855898E-005,608.9866333,0.0116898315,608.9866333,0.005725237075,
607.9899902,0.00068955397,607.9899902,0.01182877179,607.9899902,0.006695447024,
606.993103,-0.0001779036975,606.993103,0.0112714991,606.993103,0.006089507602,
605.9959717,-0.0002278402826,605.9959717,0.01158547029,605.9959717,0.006349973846,
604.9985962,-0.0001491293369,604.9985962,0.0115336841,604.9985962,0.00657209428,
604.0009155,-0.0003488027432,604.0009155,0.01209773496,604.0009155,0.006354019046,
603.0029297,0.0003754311183,603.0029297,0.01242682151,603.0029297,0.007488258183,
602.0047607,3.929667946E-005,602.0047607,0.0126580419,602.0047607,0.006940205581,
601.0062256,-0.0002245286159,601.0062256,0.01262294315,601.0062256,0.007460316177,
600.0075073,0.0003836182295,600.0075073,0.01247373223,600.0075073,0.007435088512,
599.0085449,-0.0009039802244,599.0085449,0.01237320341,599.0085449,0.007696943358,
598.0092163,2.495479021E-005,598.0092163,0.01398563758,598.0092163,0.00834476389,
597.0097046,-0.0003538205638,597.0097046,0.01399384439,597.0097046,0.008267612197,
596.0098877,0.0003254567564,596.0098877,0.01411394868,596.0098877,0.008973997086,
595.0098877,9.312180919E-005,595.0098877,0.01427458506,595.0098877,0.008667453192,
594.0095825,0.0003775037767,594.0095825,0.01495327801,594.0095825,0.01006429177,
593.0089722,-0.000959464116,593.0089722,0.0147078447,593.0089722,0.009798888117,
592.0081787,0.0001226650347,592.0081787,0.01477940101,592.0081787,0.01004243549,
591.0070801,0.0003510779352,591.0070801,0.01701025292,591.0070801,0.01047210209,
590.0056763,-0.000132464178,590.0056763,0.01662509143,590.0056763,0.01085813344,
589.0040894,0.0002429300803,589.0040894,0.01711991243,589.0040894,0.01144068129,
588.0021973,0.0002230907994,588.0021973,0.01825290546,588.0021973,0.01298560668,
587.000061,-0.0003705806739,587.000061,0.01918184385,587.000061,0.01324196998,
585.9976807,0.0002875070495,585.9976807,0.01923592947,585.9976807,0.01399181224,
584.9950562,-0.0002488481696,584.9950562,0.02040647902,584.9950562,0.01489085518,
583.9921875,3.507690417E-005,583.9921875,0.02062510327,583.9921875,0.01546905003,
582.9889526,0.0001502422529,582.9889526,0.02241901495,582.9889526,0.01693741418,
581.9855957,-0.0004570092133,581.9855957,0.02209948562,581.9855957,0.01699130237,
580.9818726,-6.43995154E-005,580.9818726,0.02275926434,580.9818726,0.01813904755,
580.0151367,-0.0002027950977,580.0151367,0.0237691775,580.0151367,0.0192913767,
579.0109863,-0.0001001153869,579.0109863,0.02502789348,579.0109863,0.02020163089,
578.0065308,0.0002494829532,578.0065308,0.0258813221,578.0065308,0.02079457603,
577.0018311,1.302083729E-005,577.0018311,0.0272680521,577.0018311,0.02169827372,
575.9968872,-0.0004072024021,575.9968872,0.02838519961,575.9968872,0.02245008945,
574.9917603,-0.0001313255489,574.9917603,0.0287270043,574.9917603,0.02352529764,
573.9862061,0.0001736001141,573.9862061,0.0295816455,573.9862061,0.02427083999,
573.0177612,-0.0002933959768,573.0177612,0.02959392034,573.0177612,0.02442153171,
572.0118408,-4.457334944E-005,572.0118408,0.03079076111,572.0118408,0.02476423234,
571.0056763,-0.0001248042099,571.0056763,0.03058387339,571.0056763,0.02530041151,
569.9992065,-0.0004227191675,569.9992065,0.03086988069,569.9992065,0.0254760012,
568.9925537,-2.220959323E-005,568.9925537,0.03115523979,568.9925537,0.02622636035,
567.9855957,-0.0002374647156,567.9855957,0.03088466637,567.9855957,0.0257939864,
567.0157471,-0.0002356536861,567.0157471,0.03167019039,567.0157471,0.02585203573,
566.0082397,-0.0001834927534,566.0082397,0.0314026922,566.0082397,0.02611918934,
565.0006104,0.0002565280301,565.0006104,0.03164234757,565.0006104,0.02652673423,
563.9926147,7.445442316E-005,563.9926147,0.03077503294,563.9926147,0.0259803012,
562.9844971,0.0006429654313,562.9844971,0.03186441958,562.9844971,0.02573495731,
562.0134277,0.0004760189913,562.0134277,0.03094765171,562.0134277,0.02557225153,
561.0047607,5.37425949E-005,561.0047607,0.03102860786,561.0047607,0.02516795881,
559.9957886,-0.0005419726949,559.9957886,0.03005078994,559.9957886,0.02461492829,
558.9866943,-8.815866022E-005,558.9866943,0.03004637919,558.9866943,0.02534039319,
558.0146484,-0.0002443983103,558.0146484,0.02987752855,558.0146484,0.02489171177,
557.0050659,9.291467723E-005,557.0050659,0.03020019829,557.0050659,0.02417870983,
555.9951172,-0.0003590969718,555.9951172,0.03015474603,555.9951172,0.02471170016,
554.9849854,9.62029153E-005,554.9849854,0.02992514335,554.9849854,0.02483672462,
554.012085,-1.656698828E-006,554.012085,0.03006968088,554.012085,0.02452091686,
553.0014648,0.0005561017315,553.0014648,0.0304405801,553.0014648,0.02487044036,
551.9905396,0.0001502681553,551.9905396,0.0303517133,551.9905396,0.02442495525,
551.0169067,0.0001932040614,551.0169067,0.03064312227,551.0169067,0.02500033565,
550.0056763,0.000221433249,550.0056763,0.03075777739,550.0056763,0.02548132651,
548.9940186,-9.685449186E-005,548.9940186,0.03089989722,548.9940186,0.02575338818,
547.9821777,-0.0001540459634,547.9821777,0.03124099039,547.9821777,0.02568810247,
547.0076294,8.708913083E-005,547.0076294,0.03191991523,547.0076294,0.02607160434,
545.9954224,0.0001062231167,545.9954224,0.03224028647,545.9954224,0.02648579143,
544.9828491,1.309849722E-005,544.9828491,0.03233779594,544.9828491,0.02668531239,
544.0076294,9.920635785E-005,544.0076294,0.03276629746,544.0076294,0.0270664189,
542.9946289,-0.0001067923731,542.9946289,0.03295570984,542.9946289,0.02725821361,
541.9813843,7.807910151E-005,541.9813843,0.03326664492,541.9813843,0.02757910639,
541.0054321,6.371003838E-005,541.0054321,0.03342051804,541.0054321,0.02774720266,
539.9917603,-0.0001633615029,539.9917603,0.03333735839,539.9917603,0.02766801603,
539.0153809,0.0001128774893,539.0153809,0.0334793739,539.0153809,0.02822555602,
538.0012207,0.0001255651005,538.0012207,0.03383296356,538.0012207,0.02809491381,
536.9867554,-0.0002332217118,536.9867554,0.03416309506,536.9867554,0.02837041393,
536.0097046,0.0001693013473,536.0097046,0.03398631141,536.0097046,0.02849826589,
534.9949341,-8.272367268E-005,534.9949341,0.03385968879,534.9949341,0.02836350724,
534.017395,0.0002561395231,534.017395,0.03434765711,534.017395,0.02857835032,
533.0020752,-0.0001757819118,533.0020752,0.03407657146,533.0020752,0.02824718691,
531.9865112,-0.0001694164966,531.9865112,0.03366280347,531.9865112,0.02776246332,
531.0083618,-3.390929487E-005,531.0083618,0.03357226774,531.0083618,0.02792130038,
529.9923096,-6.087953079E-005,529.9923096,0.03350252286,529.9923096,0.02785356343,
529.0136719,-4.348624861E-005,529.0136719,0.03397998586,529.0136719,0.02810811438,
527.9972534,-9.638864867E-005,527.9972534,0.0332724303,527.9972534,0.02764528431,
527.0181274,-6.797123206E-005,527.0181274,0.03282994777,527.0181274,0.02738113329,
526.0012207,6.078450679E-005,526.0012207,0.03301126137,526.0012207,0.02739676461,
524.9840088,0.0002050911717,524.9840088,0.03271767125,524.9840088,0.02678276785,
524.0043945,-6.30018767E-005,524.0043945,0.03207637742,524.0043945,0.02630231343,
522.9866943,0.0001313393732,522.9866943,0.03209864721,522.9866943,0.02623988874,
522.0065918,-6.020658839E-005,522.0065918,0.03156528622,522.0065918,0.02593242936,
520.9885254,-0.0001151255274,520.9885254,0.03160287067,520.9885254,0.02565251291,
520.0079346,0.000215139793,520.0079346,0.03132394701,520.0079346,0.02547292598,
518.9894409,-0.0002876014041,518.9894409,0.03052183054,518.9894409,0.02509258501,
518.0084229,-0.0003791674098,518.0084229,0.03073074296,518.0084229,0.02472836152,
516.9894409,0.0002407544525,516.9894409,0.03077472746,516.9894409,0.02481274307,
516.0079346,-0.0003259890655,516.0079346,0.02983119525,516.0079346,0.02413741313,
514.9885864,-6.067247159E-005,514.9885864,0.02954490297,514.9885864,0.02374905348,
514.0067139,0.0002696342708,514.0067139,0.02942308597,514.0067139,0.02365629561,
512.9868774,0.0003536427394,512.9868774,0.02947004139,512.9868774,0.02377122827,
512.0045776,-0.000210712431,512.0045776,0.02871475369,512.0045776,0.02285496891,
510.9842529,-1.698086271E-005,510.9842529,0.02893602476,510.9842529,0.02304818854,
510.0015564,-0.0002784437384,510.0015564,0.02813614719,510.0015564,0.02271916717,
509.0186157,-0.0001729356009,509.0186157,0.02846907638,509.0186157,0.02249534242,
507.9976807,8.346437971E-005,507.9976807,0.02834792249,507.9976807,0.02222607471,
507.0143433,-0.0002563507296,507.0143433,0.02803772502,507.0143433,0.0222678706,
505.9929199,-0.0003923058102,505.9929199,0.02772454917,505.9929199,0.02161316387,
505.0091553,-5.016410796E-005,505.0091553,0.02755450271,505.0091553,0.02179766446,
503.9873352,-0.0001102084716,503.9873352,0.02783962525,503.9873352,0.02196857519,
503.0031433,-0.000265508861,503.0031433,0.0283775162,503.0031433,0.02208161727,
502.0187378,0.0003691095044,502.0187378,0.02782869525,502.0187378,0.02170861512,
500.9962463,-0.0001167300288,500.9962463,0.02770633809,500.9962463,0.02172001824,
500.0114136,0.000250881596,500.0114136,0.02753092162,500.0114136,0.02166273631,
498.9885254,-0.0001480942592,498.9885254,0.02746197768,498.9885254,0.0213499628,
498.0032654,0.000168679835,498.0032654,0.0277493,498.0032654,0.02161076851,
497.0178833,0.0003701458336,497.0178833,0.02750301175,497.0178833,0.02141846158,
495.9942932,0.0003376324603,495.9942932,0.0272514876,495.9942932,0.02142808773,
495.0084534,0.0002919106046,495.0084534,0.02742811479,495.0084534,0.02168496884,
493.9845276,-0.0001455065358,493.9845276,0.02717396244,493.9845276,0.02134765126,
492.9981995,0.0001979692315,492.9981995,0.02735077776,492.9981995,0.02133745514,
492.0117798,-0.0002660262689,492.0117798,0.02738656476,492.0117798,0.02117100544,
490.9871521,-1.33569547E-005,490.9871521,0.02734253556,490.9871521,0.02130191959,
490.0003052,0.0003523991909,490.0003052,0.02750370093,490.0003052,0.02107222006,
489.0132446,1.351268565E-005,489.0132446,0.02723922208,489.0132446,0.02118584514,
487.9879761,8.878977496E-006,487.9879761,0.02736357041,487.9879761,0.02119315788,
487.0005493,0.0001102882306,487.0005493,0.02761372551,487.0005493,0.02154558711,
486.0128784,0.0002924804867,486.0128784,0.02734926157,486.0128784,0.02132271975,
484.9869385,-7.542515959E-005,484.9869385,0.02740073577,484.9869385,0.02159504406,
483.9988708,-0.0001278578566,483.9988708,0.02787180617,483.9988708,0.02131279558,
483.0106201,-0.0001265639439,483.0106201,0.02766652592,483.0106201,0.02129390091,
481.9841003,-0.0002007769217,481.9841003,0.02776602283,481.9841003,0.02159566991,
480.9954529,-0.0001501126681,480.9954529,0.02804145217,480.9954529,0.02169258706,
480.0066223,9.356196824E-005,480.0066223,0.02799012326,480.0066223,0.02208572999,
479.0174866,-0.0003326625738,479.0174866,0.02852753922,479.0174866,0.02234024741,
477.9902649,5.01440154E-005,477.9902649,0.02865610085,477.9902649,0.02264042757,
477.0007324,0.000135974391,477.0007324,0.02891436033,477.0007324,0.02284528315,
476.0110779,0.0001384602219,476.0110779,0.02909628861,476.0110779,0.02334410511,
474.9832153,-0.0001826129883,474.9832153,0.02938392013,474.9832153,0.023006998,
473.993103,5.987837358E-005,473.993103,0.02994738519,473.993103,0.02358446456,
473.0028687,-9.700977535E-005,473.0028687,0.03026608191,473.0028687,0.02436244301,
472.0124207,9.886976477E-005,472.0124207,0.03069137596,472.0124207,0.02455422468,
470.9836426,0.0001582179684,470.9836426,0.03143800423,470.9836426,0.02502863295,
469.9928284,-0.000242639042,469.9928284,0.03116141446,469.9928284,0.02512409911,
469.0018005,-0.0001205601075,469.0018005,0.03174356744,469.0018005,0.02574045211,
468.0105591,-0.0001401757763,468.0105591,0.03224276751,468.0105591,0.02649407461,
466.9811096,1.669677113E-005,466.9811096,0.03307142481,466.9811096,0.02729528584,
465.989502,-0.0002677854209,465.989502,0.03350585327,465.989502,0.02735449933,
464.9976501,0.0001031419451,464.9976501,0.03463993594,464.9976501,0.02842466161,
464.0056763,0.0002790368162,464.0056763,0.03534641117,464.0056763,0.029327197,
463.0135498,-0.0001602563425,463.0135498,0.03605153412,463.0135498,0.030190764,
461.9829712,-9.794146172E-005,461.9829712,0.0369749777,461.9829712,0.03100869991,
460.990448,5.487860108E-006,460.990448,0.03776731715,460.990448,0.0316154547,
459.9977112,2.565375144E-005,459.9977112,0.03901578113,459.9977112,0.03248478472,
459.0047607,0.0002620450396,459.0047607,0.04010834917,459.0047607,0.03349464014,
458.0116272,-9.333476919E-005,458.0116272,0.04099167883,458.0116272,0.03484175354,
457.0183105,0.0002488872269,457.0183105,0.04247357324,457.0183105,0.03614135087,
455.9866028,0.0001618951355,455.9866028,0.043636702,455.9866028,0.03743649274,
454.9929199,-6.196658796E-005,454.9929199,0.04496223852,454.9929199,0.03900830448,
453.999054,0.0002422566758,453.999054,0.04650152475,453.999054,0.04053137451,
453.0049438,-0.0001813709823,453.0049438,0.04762960598,453.0049438,0.04183607548,
452.0107422,-0.0002659227757,452.0107422,0.04965524748,452.0107422,0.04338369891,
451.0163269,8.103063738E-005,451.0163269,0.05151579157,451.0163269,0.04579380155,
449.983429,-4.902525689E-005,449.983429,0.05365679786,449.983429,0.04741667956,
448.9886475,2.107168984E-005,448.9886475,0.05552794784,448.9886475,0.04943340644,
447.9936523,-0.0001401757763,447.9936523,0.05812962353,447.9936523,0.05208634958,
446.9985046,0.0002287627722,446.9985046,0.06058954075,446.9985046,0.05392919108,
446.0031128,-0.0001289965003,446.0031128,0.06326723099,446.0031128,0.05701446906,
445.0075989,-3.996609667E-005,445.0075989,0.06575159729,445.0075989,0.06008323655,
444.0118408,-9.229955322E-005,444.0118408,0.06914081424,444.0118408,0.06309463084,
443.0159912,-0.0002945859451,443.0159912,0.07259046286,443.0159912,0.06695055962,
441.9815979,-0.0001613431523,441.9815979,0.07644583285,441.9815979,0.07115318626,
440.985321,0.0001199462567,440.985321,0.08108197153,440.985321,0.07511942089,
439.9888916,-0.0001175063953,439.9888916,0.08592323959,439.9888916,0.07999761403,
438.9923096,-7.470048149E-005,438.9923096,0.09143330157,438.9923096,0.08577942848,
437.9954529,-0.0001782142062,437.9954529,0.09707415104,437.9954529,0.09114401042,
436.9984741,8.82720451E-006,436.9984741,0.1031978726,436.9984741,0.09735757858,
436.0013733,-3.991432823E-005,436.0013733,0.110654287,436.0013733,0.1053717434,
435.0039673,-3.489288429E-005,435.0039673,0.1183117703,435.0039673,0.1126145869,
434.0064697,-1.402996804E-005,434.0064697,0.1257015616,434.0064697,0.1210325584,
433.008728,-0.0001507337147,433.008728,0.1352141351,433.008728,0.1295663863,
432.0108948,0.0003580728662,432.0108948,0.1445542872,432.0108948,0.1396567374,
431.0128784,-1.211446397E-005,431.0128784,0.1554843783,431.0128784,0.150285095,
430.0146484,0.0001618692331,430.0146484,0.1650848389,430.0146484,0.1599177122,
429.0162354,-0.0001116577114,429.0162354,0.1753012538,429.0162354,0.1703685373,
428.0177002,5.726353629E-005,428.0177002,0.1872457862,428.0177002,0.1815539449,
427.0189209,-8.567410259E-005,427.0189209,0.1973491609,427.0189209,0.1919263303,
425.9815979,-6.590067642E-005,425.9815979,0.2078391314,425.9815979,0.2039532214,
424.9824829,-0.0001131587123,424.9824829,0.2185422033,424.9824829,0.2137677222,
423.9832458,-0.0001244936575,423.9832458,0.2269151956,423.9832458,0.2216914147,
422.9837952,-0.0001578757074,422.9837952,0.2358124852,422.9837952,0.2308480442,
421.9841614,-0.0002305310045,421.9841614,0.242526114,421.9841614,0.239075169,
420.984375,0.0002794253523,420.984375,0.2488067299,420.984375,0.2439331859,
419.984436,5.15679094E-005,419.984436,0.2531111836,419.984436,0.2483889908,
418.9842834,0.0002960810671,418.9842834,0.2559737563,418.9842834,0.2515507042,
417.9839783,-2.567812226E-005,417.9839783,0.2571268082,417.9839783,0.2526832521,
416.9835205,0.0001108578654,416.9835205,0.2571856678,416.9835205,0.2522048652,
415.9828491,0.0001380977046,415.9828491,0.2553247809,415.9828491,0.2507016361,
414.9820557,0.0001214480581,414.9820557,0.2521087527,414.9820557,0.2476271093,
413.9810181,4.52510285E-005,413.9810181,0.2487642616,413.9810181,0.2437813729,
413.0184021,6.885722087E-006,413.0184021,0.2438689023,413.0184021,0.2378380299,
412.0171204,0.0003690058948,412.0171204,0.2389069051,412.0171204,0.2340013981,
411.015625,-0.0001698305132,411.015625,0.2334308922,411.015625,0.2276141495,
410.0139771,-0.0002182156604,410.0139771,0.2283571512,410.0139771,0.2227506787,
409.0121765,-0.000371822156,409.0121765,0.2224082351,409.0121765,0.2170961052,
408.0101318,0.0003421660513,408.0101318,0.216919601,408.0101318,0.2118458152,
407.0079956,-0.0003164700465,407.0079956,0.2125002742,407.0079956,0.2063549012,
406.0057068,8.167790656E-005,406.0057068,0.2068383843,406.0057068,0.2011137605,
405.0032349,-5.684186544E-005,405.0032349,0.2028762102,405.0032349,0.1964353025,
404.0005493,8.38527485E-005,404.0005493,0.1986946762,404.0005493,0.1919451356,
402.9977417,-0.0001971027959,402.9977417,0.1942455769,402.9977417,0.1877312213,
401.9947815,5.053235145E-005,401.9947815,0.1905627251,401.9947815,0.1841957569,
400.9916077,0.0001476527686,400.9916077,0.1869226992,400.9916077,0.1805312037,
399.9883118,-0.0001378467859,399.9883118,0.1838328689,399.9883118,0.1769488603,
398.9848328,8.4344676E-005,398.9848328,0.1811882555,398.9848328,0.1744770557,
397.9812317,0.0004680892744,397.9812317,0.1788240224,397.9812317,0.1713953912,
397.0160522,0.0002626148635,397.0160522,0.1754454225,397.0160522,0.1689713448,
396.012085,5.537361722E-005,396.012085,0.1717403531,396.012085,0.1660815626,
395.0079956,0.0002661893086,395.0079956,0.1696240604,395.0079956,0.1631125361,
394.0037231,0.000128206244,394.0037231,0.1674431264,394.0037231,0.1598129869,
392.9992981,5.16455766E-005,392.9992981,0.1639967561,392.9992981,0.1572937816,
391.9946899,0.0001535309275,391.9946899,0.1611792296,391.9946899,0.1546724886,
390.9899292,-1.470298139E-005,390.9899292,0.1586365402,390.9899292,0.1516975611,
389.9850159,-2.464274257E-005,389.9850159,0.1554882675,389.9850159,0.1488498896,
389.0185852,0.000116709627,389.0185852,0.1526469588,389.0185852,0.1456053257,
388.0133667,0.000309499359,388.0133667,0.1496079266,388.0133667,0.1423399001,
387.0079956,-7.583926345E-005,387.0079956,0.1462613791,387.0079956,0.1390189826,
386.0024414,-0.0001814227435,386.0024414,0.1428794861,386.0024414,0.1354488283,
384.9967651,-0.0004300118308,384.9967651,0.1401468366,384.9967651,0.1328579187,
383.9909058,-0.0006079463055,383.9909058,0.1371691674,383.9909058,0.1301583946,
382.9848938,0.0002598952269,382.9848938,0.1348897219,382.9848938,0.1276038289,
382.017395,-0.0001471626747,382.017395,0.1319330633,382.017395,0.1247552633,
381.0110779,-0.0003063817567,381.0110779,0.1298270524,381.0110779,0.1225725561,
380.0045776,0.0004935633624,380.0045776,0.1282547265,380.0045776,0.1209616214,
378.9979858,0.0003639797796,378.9979858,0.1259141117,378.9979858,0.118563652,
377.9912109,-0.0004080817162,377.9912109,0.124216117,377.9912109,0.1166364849,
376.9842834,-0.0003501477186,376.9842834,0.1231567487,376.9842834,0.1154588312,
376.0158997,0.0001241927384,376.0158997,0.1214834526,376.0158997,0.1140399352,
375.008667,0.0002136117691,375.008667,0.1208330542,375.008667,0.1134902611,
374.0012817,-0.0006192166475,374.0012817,0.1190099493,374.0012817,0.1118920073,
372.9937439,8.108242037E-005,372.9937439,0.1180782393,372.9937439,0.1110363603,
371.9860535,-0.0001003224243,371.9860535,0.1177950948,371.9860535,0.1102167964,
371.0169373,1.63602399E-005,371.0169373,0.11743512,371.0169373,0.1100413054,
370.0089722,0.001045704936,370.0089722,0.1172266379,370.0089722,0.1103727743,
369.0007935,0.0006238077767,369.0007935,0.1165491268,369.0007935,0.1096998602,
367.9925232,0.0004858406319,367.9925232,0.1162764877,367.9925232,0.1091213673,
366.9840393,0.0006779128453,366.9840393,0.1157143414,366.9840393,0.1084390879,
366.0142517,0.000157208051,366.0142517,0.115149349,366.0142517,0.1083585843,
365.0055542,7.018253382E-005,365.0055542,0.1144958213,365.0055542,0.1070043892,
363.9966431,4.996020834E-006,363.9966431,0.1138803512,363.9966431,0.1072575226,
362.9876099,0.0003989306279,362.9876099,0.1128825545,362.9876099,0.106270276,
362.0172424,-0.0003063817567,362.0172424,0.113066256,362.0172424,0.1055634171,
361.0079041,-1.511714254E-005,361.0079041,0.111864239,361.0079041,0.1047618464,
359.9984436,0.0003569847613,359.9984436,0.11157538,359.9984436,0.1042796299,
358.9888,0.000182534437,358.9888,0.1098157465,358.9888,0.1028710753,
358.0178833,5.998193228E-005,358.0178833,0.1095785126,358.0178833,0.1016324013,
357.0079651,-0.0003452850797,357.0079651,0.1078946963,357.0079651,0.1002659202,
355.9979248,-0.0001286342158,355.9979248,0.1067804024,355.9979248,0.0993270278,
354.9877319,-0.0003271271707,354.9877319,0.1049998626,354.9877319,0.09734303504,
354.0162048,0.0002175483824,354.0162048,0.1037593186,354.0162048,0.09667977691,
353.0057678,-0.0001786282082,353.0057678,0.1020249501,353.0057678,0.09506756812,
351.9951172,0.0003301974793,351.9951172,0.1005985513,351.9951172,0.09313760698,
350.984375,0.0003101210459,350.984375,0.0991801396,350.984375,0.091723077,
350.0123291,-0.00100120157,350.0123291,0.09663046151,350.0123291,0.08963408321,
349.0012512,-0.000400633493,349.0012512,0.0954362303,349.0012512,0.08803185821,
347.9900513,0.0003168562544,347.9900513,0.09376328439,347.9900513,0.08676256239,
347.0176392,1.959612018E-005,347.0176392,0.09188389778,347.0176392,0.08469767123,
346.0061646,0.0005054846406,346.0061646,0.09058497846,346.0061646,0.08328138292,
344.9945374,-4.193506811E-006,344.9945374,0.08821034431,344.9945374,0.08140382171,
343.9827881,-0.0003729601449,343.9827881,0.08666318655,343.9827881,0.07941867411,
343.0098267,-0.0003521651961,343.0098267,0.0848652944,343.0098267,0.07777476311,
341.9977722,0.0001006821985,341.9977722,0.08329047263,341.9977722,0.0754153803,
340.9856262,0.0004913605517,340.9856262,0.08205557615,340.9856262,0.07473073155,
340.0122375,-0.0002230279933,340.0122375,0.08000337332,340.0122375,0.0722052902,
338.9998169,-3.986420779E-006,338.9998169,0.07887778431,338.9998169,0.0713673979,
337.9872437,0.0001825603249,337.9872437,0.0775546059,337.9872437,0.07001511008,
337.0134583,0.0004403882194,337.0134583,0.07540204376,337.0134583,0.06864652038,
336.0006104,0.0003951478284,336.0006104,0.07430255413,336.0006104,0.06714775413,
334.9876099,0.0001768112706,334.9876099,0.07327888161,334.9876099,0.0657755658,
334.0134583,0.0005603525206,334.0134583,0.07168991119,334.0134583,0.06469447166,
333.0002136,0.0004532926832,333.0002136,0.07093928754,333.0002136,0.06331990659,
331.9868164,-0.0002307379909,331.9868164,0.06913374364,331.9868164,0.06174740195,
331.0122681,-0.0002138689742,331.0122681,0.06792619824,331.0122681,0.05982534215,
329.9985962,0.0006628498668,329.9985962,0.06671946496,329.9985962,0.05909398571,
328.9848022,8.38527485E-005,328.9848022,0.06574352086,328.9848022,0.05823510513,
328.0098877,-0.0003843917802,328.0098877,0.06380864978,328.0098877,0.05615612492,
326.9958801,0.0002809536236,326.9958801,0.06310875714,326.9958801,0.05578015372,
325.9816589,-0.0001108813303,325.9816589,0.06249636784,325.9816589,0.05431383103,
325.0063477,-0.000496209308,325.0063477,0.06086613983,325.0063477,0.05331075564,
323.9918823,0.0008667759248,323.9918823,0.0605420731,323.9918823,0.05289901793,
323.0163574,-0.0002606452326,323.0163574,0.05948943272,323.0163574,0.0513526015,
322.0016479,-0.0005414039479,322.0016479,0.05860145018,322.0016479,0.05104580149,
320.9867859,0.0003170894051,320.9867859,0.05787954107,320.9867859,0.04994376004,
320.0108643,0.0005693984567,320.0108643,0.0577185601,320.0108643,0.04999292642,
318.9957581,-0.0002759602794,318.9957581,0.05707262456,318.9957581,0.04881047085,
317.9805298,-0.0003843400627,317.9805298,0.05674497038,317.9805298,0.04922243208,
317.0042419,-0.0003142972128,317.0042419,0.05658974499,317.0042419,0.04925308004,
315.9887695,-0.0003797364188,315.9887695,0.05614174902,315.9887695,0.04836782068,
315.012207,0.001197269885,315.012207,0.05798292533,315.012207,0.04951173067,
313.99646,0.0004564800183,313.99646,0.05687865242,313.99646,0.04886495695,
312.9806213,-0.0001825612417,312.9806213,0.05655126274,312.9806213,0.0489192754,
312.0037231,-0.0001204048313,312.0037231,0.05726930872,312.0037231,0.0487321578,
310.9876099,0.0008990695351,310.9876099,0.05899158493,310.9876099,0.05070142448,
310.010437,0.0002737009199,310.010437,0.05892170221,310.010437,0.05085281283,
308.9940796,-0.0004557679931,308.9940796,0.06052680686,308.9940796,0.05371224508,
308.0166931,-0.0005565022584,308.0166931,0.0639700219,308.0166931,0.05608457327,
307.0000916,0.001429235563,307.0000916,0.06673425436,307.0000916,0.05993314087,
305.9833374,-0.0002122130827,305.9833374,0.06969933957,305.9833374,0.0602421239,
305.0056152,0.00029895638,305.0056152,0.07574161887,305.0056152,0.06553519517,
303.9886475,0.001512169838,303.9886475,0.08589976281,303.9886475,0.07421013713,
303.0106506,-0.0004525614786,303.0106506,0.09151472151,303.0106506,0.07976069301,
301.9934387,-0.0003790122282,301.9934387,0.1007914618,301.9934387,0.09666829556,
301.0151978,0.001653243788,301.0151978,0.1068693846,301.0151978,0.1040106639,
299.9977722,-0.004383235238,299.9977722,0.117252849,299.9977722,0.1084650084,
299.0193176,-0.003926903941,299.0193176,0.129900977,299.0193176,0.1252223998,
298.0016174,0.001227744971,298.0016174,0.1490682364,298.0016174,0.1415927857,
296.9837952,0.01197709609,296.9837952,0.1767764986,296.9837952,0.1548252404,
296.0050049,-0.0002900848049,296.0050049,0.1787913293,296.0050049,0.1754568219,
294.9869385,-0.006088319235,294.9869385,0.2039602995,294.9869385,0.1999149024,
294.0079346,-0.00400565099,294.0079346,0.2373411506,294.0079346,0.2279123366,
292.9896545,0.006309025455,292.9896545,0.2452940941,292.9896545,0.2700136602,
292.010376,0.002071903087,292.010376,0.2932506204,292.010376,0.2871700227,
290.9918518,0.0007910185377,290.9918518,0.3149484098,290.9918518,0.3084729314,
290.0123901,-0.0115366457,290.0123901,0.3169675767,290.0123901,0.3168705702,
288.9936218,-0.004837142304,288.9936218,0.341750443,288.9936218,0.3671068251,
288.013916,0.006316143088,288.013916,0.3665407896,288.013916,0.362885505,
286.9949341,-0.006891734432,286.9949341,0.3800229132,286.9949341,0.3693773448,
286.0150146,0.00981938187,286.0150146,0.4298024774,286.0150146,0.3993447423,
284.9957886,-0.006181528792,284.9957886,0.4732311666,284.9957886,0.4432684481,
284.015625,0.001360053546,284.015625,0.4444978535,284.015625,0.4605352879,
282.9962158,-0.006407578476,282.9962158,0.4530647397,282.9962158,0.406109184,
282.0158691,0.07312400639,282.0158691,0.4980096221,282.0158691,0.4338981211,
280.9961548,0.07330533117,280.9961548,0.4836524427,280.9961548,0.5180760026,
280.0155945,-0.09798921645,280.0155945,0.03066687286,280.0155945,0.4111821353,
278.995697,0.05284750462,278.995697,0.2193026394,278.995697,0.1394345611,
278.0149231,-0.8118784428,278.0149231,-0.7909072042,278.0149231,-0.7874521613,
276.9947815,-0.4310928881,276.9947815,0.1989506483,276.9947815,0.3740252554,
276.0137939,-0.08088500798,276.0137939,-0.03499025851,276.0137939,0.2744933963,
274.9934387,-0.2815152407,274.9934387,0.1728944927,274.9934387,-0.02564954944,
274.0122375,10,274.0122375,0.5122483969,274.0122375,10,
272.9916687,0.2011343688,272.9916687,0.8345292807,272.9916687,0.2138090134,
272.0102539,-0.1344207972,272.0102539,-0.2440095395,272.0102539,0.2323437929,
270.9894409,0.6679387689,270.9894409,10,270.9894409,-0.08837299794,
270.0078125,0.2017498016,270.0078125,-0.1427787095,270.0078125,10,
268.9868164,0.8432530761,268.9868164,0.1258051991,268.9868164,0.9145898819,
268.0049744,10,268.0049744,0.08906259388,268.0049744,0.5467634797,
266.9837646,4.530263901,266.9837646,10,266.9837646,3.567543983,
266.001709,10,266.001709,-0.09477304667,266.001709,0.3746008873,
265.0195618,10,265.0195618,-0.0081284279,265.0195618,-0.2120274603,
263.9980469,10,263.9980469,-0.06041569635,263.9980469,0.4978749752,
263.0157166,-0.1562342644,263.0157166,0.5701187849,263.0157166,0.0504723601,
261.9939575,0.2222083509,261.9939575,0.132340759,261.9939575,-0.3177055418,
261.0113831,-0.4160054028,261.0113831,10,261.0113831,-0.3382861018,
259.9894409,-0.06416353583,259.9894409,0.1336670816,259.9894409,0.2424827218,
259.0067139,3.75062418,259.0067139,3.642019033,259.0067139,10,
257.9845276,0.477019757,257.9845276,0.2107947916,257.9845276,-0.2299494147,
257.0015869,0.8252636194,257.0015869,-0.2132373303,257.0015869,-0.03119720332,
256.0185242,-0.05323798954,256.0185242,-0.4598312378,256.0185242,0.4014195502,
254.9960938,-0.2868509889,254.9960938,10,254.9960938,-0.4414440393,
254.0128326,3.906388998,254.0128326,3.907088757,254.0128326,3.44865489,
252.9901428,-0.336807698,252.9901428,-0.2566016912,252.9901428,-0.1748187095,
252.0067139,10,252.0067139,10,252.0067139,0.2431198508,
250.9838104,-0.8516215086,250.9838104,-0.476264596,250.9838104,-0.686221838,
250.0001678,10,250.0001678,10,250.0001678,10,
249.0164642,0.1272780746,249.0164642,10,249.0164642,0.009524226189,
247.9933014,-0.1618743688,247.9933014,0.3839329779,247.9933014,0.3692174554,
247.0093842,0.05089626461,247.0093842,0.1022086367,247.0093842,10,
245.9859924,-0.2011787593,245.9859924,-0.2298045903,245.9859924,0.3419335485,
245.0018921,-0.6620399356,245.0018921,-0.2364176661,245.0018921,10,
244.0176697,-0.5421230793,244.0176697,0.5284548402,244.0176697,-0.1330753863,
242.9940338,0.1980275661,242.9940338,0.003728733864,242.9940338,0.1807556897,
242.0096436,0.3404966295,242.0096436,0.2799747586,242.0096436,0.3483455181,
240.9857635,-0.02673999593,240.9857635,-0.08640609682,240.9857635,0.2015547156,
240.0011749,-0.1443420053,240.0011749,0.03832621872,240.0011749,0.08057081699,
239.0165253,0.1628392935,239.0165253,0.1557438523,239.0165253,-0.1866959184,
237.9924011,0.0382496044,237.9924011,0.2661381066,237.9924011,0.05402216688,
237.0075378,0.7672877312,237.0075378,0.8990259767,237.0075378,0.4074908793,
235.9832001,0.06511697173,235.9832001,0.2817894518,235.9832001,1.170392394,
234.9981842,-0.372453779,234.9981842,-0.2234298587,234.9981842,0.8064023256,
234.013031,-0.01681124419,234.013031,-0.06885836273,234.013031,10,
232.9884338,10,232.9884338,-0.9197661877,232.9884338,10,
232.0031281,-0.2830479443,232.0031281,-0.6607270241,232.0031281,-0.6390697956,
231.017746,10,231.017746,-0.2490958124,231.017746,0.1524579376,
229.9928284,4.535205364,229.9928284,3.345138311,229.9928284,10,
229.0072784,10,229.0072784,0.03150518984,229.0072784,10,
227.982193,0.4444299042,227.982193,0.1570525616,227.982193,0.1636399329,
226.9964294,4.287106991,226.9964294,3.703076363,226.9964294,4.02806282,
226.0106049,10,226.0106049,10,226.0106049,10,
224.9852905,0.3183432221,224.9852905,0.120423004,224.9852905,-0.1745472699,
223.9992676,10,223.9992676,10,223.9992676,10,
223.0131836,-0.1170283929,223.0131836,0.2599487007,223.0131836,0.2810385525,
221.9875793,-0.2966733873,221.9875793,10,221.9875793,-0.216366142,
221.0013275,0.07582977414,221.0013275,10,221.0013275,1.011724949,
220.0149689,0.1291594654,220.0149689,0.1615466177,220.0149689,0.18516469,
218.98909,0.3930413723,218.98909,-0.07452522218,218.98909,-0.2439065576,
218.0025787,10,218.0025787,-0.4238976836,218.0025787,-0.3141061068,
217.015976,-0.05895873532,217.015976,-0.04100484401,217.015976,0.1521902084,
215.9898376,0.5489177108,215.9898376,0.2377134413,215.9898376,0.3107992709,
215.003067,-0.04237449914,215.003067,-0.4270069301,215.003067,10,
214.0162354,0.03894079849,214.0162354,0.06938409805,214.0162354,1.014820457,
212.9898224,-0.1221049875,212.9898224,-0.1167992651,212.9898224,0.02862272598,
212.0028229,-0.4002095163,212.0028229,-0.4641677737,212.0028229,-0.07772870362,
211.0157318,10,211.0157318,10,211.0157318,10,
209.98909,0.9161779284,209.98909,0.1393246651,209.98909,0.3346883059,
209.0018311,-0.1736581177,209.0018311,-0.3446166813,209.0018311,-0.316536963,
208.0145111,10,208.0145111,0.1089557633,208.0145111,0.06624609977,
206.9876099,-0.2693912983,206.9876099,0.08661407977,206.9876099,-0.1829292625,
206.0001221,-0.3590088785,206.0001221,-0.05988325924,206.0001221,-0.2202391475,
205.0125427,0.1859934628,205.0125427,0.006379919592,205.0125427,0.2763108313,
203.9854279,-0.267717272,203.9854279,-0.1087173,203.9854279,-0.4353461266,
202.9976807,0.09389623255,202.9976807,10,202.9976807,0.652826786,
202.0098877,-0.1515179276,202.0098877,-0.1859179735,202.0098877,0.3146412969,
200.9824982,-0.1899618357,200.9824982,-0.1649454981,200.9824982,0.1090612337,
199.9945374,10,199.9945374,10,199.9945374,10,

baseline,
baseline
Collection Time: 24/04/2022 12:57:10
Operator Name  :
Scan Version 5.0.0.999
Parameter List :
Instrument  Cary 60
Instrument Version  2.00
Start (nm)  800.0
Stop (nm)  200.0
X Mode  Nanometers
Y Mode  Abs
UV-Vis Scan Rate (nm/min)  4800.000
UV-Vis Data Interval (nm)  1.00
UV-Vis Ave. Time (sec)  0.0125
Beam Mode  Dual Beam
Baseline Correction  On
Baseline Type  Baseline correction
Baseline File Name
Baseline Std Ref File Name
Cycle Mode  Off
Method Log     :
Method Name    :
Date/Time stamp: 23/04/2022 16:47:30
Method Modifications:
Common Interval nm Changed: 24/04/2022 12:56:50, Old:     5.00, New:     1.00
Baseline Correction Changed: 24/04/2022 12:56:50, Old:0, New:1
Storage Changed: 24/04/2022 12:56:50, Old:1, New:0
End Method Modifications
<Current Wavelength> , 229.0

bm3-a82f-f87v-heme-60-post-lipidex-20in1000,
bm3-a82f-f87v-heme-60-post-lipidex-20in1000
Collection Time: 24/04/2022 12:57:58
Operator Name  :
Scan Version 5.0.0.999
Parameter List :
Instrument  Cary 60
Instrument Version  2.00
Start (nm)  800.0
Stop (nm)  200.0
X Mode  Nanometers
Y Mode  Abs
UV-Vis Scan Rate (nm/min)  4800.000
UV-Vis Data Interval (nm)  1.00
UV-Vis Ave. Time (sec)  0.0125
Beam Mode  Dual Beam
Baseline Correction  On
Baseline Type  Baseline correction
Baseline File Name
Baseline Std Ref File Name
Cycle Mode  Off
Method Log     :
Method Name    :
Date/Time stamp: 23/04/2022 16:47:30
Method Modifications:
Common Interval nm Changed: 24/04/2022 12:56:50, Old:     5.00, New:     1.00
Baseline Correction Changed: 24/04/2022 12:56:50, Old:0, New:1
Storage Changed: 24/04/2022 12:56:50, Old:1, New:0
End Method Modifications
<Current Wavelength> , 258.0

bm3-a82f-f87v-heme-60-post-lipidex-post-dilution,
bm3-a82f-f87v-heme-60-post-lipidex-post-dilution
Collection Time: 24/04/2022 13:12:28
Operator Name  :
Scan Version 5.0.0.999
Parameter List :
Instrument  Cary 60
Instrument Version  2.00
Start (nm)  800.0
Stop (nm)  200.0
X Mode  Nanometers
Y Mode  Abs
UV-Vis Scan Rate (nm/min)  4800.000
UV-Vis Data Interval (nm)  1.00
UV-Vis Ave. Time (sec)  0.0125
Beam Mode  Dual Beam
Baseline Correction  On
Baseline Type  Baseline correction
Baseline File Name
Baseline Std Ref File Name
Cycle Mode  Off
Method Log     :
Method Name    :
Date/Time stamp: 23/04/2022 16:47:30
Method Modifications:
Common Interval nm Changed: 24/04/2022 12:56:50, Old:     5.00, New:     1.00
Baseline Correction Changed: 24/04/2022 12:56:50, Old:0, New:1
Storage Changed: 24/04/2022 12:56:50, Old:1, New:0
End Method Modifications
<Current Wavelength> , 263.0

