blank,,wt,,a82f,,dm,,1yqp,,1yqo,,
Wavelength (nm),Abs,Wavelength (nm),Abs,Wavelength (nm),Abs,Wavelength (nm),Abs,Wavelength (nm),Abs,Wavelength (nm),Abs,
800.010376,0.004388282076,800.010376,0.02402246743,800.010376,0.01344011631,800.010376,0.002442049561,800.010376,0.01084459759,800.010376,0.01353295986,
799.0053711,0.003054987406,799.0053711,0.02034720033,799.0053711,0.01182696316,799.0053711,0.001155428588,799.0053711,0.01018183026,799.0053711,0.01301547978,
797.999939,0.002605638932,797.999939,0.02098549344,797.999939,0.01235772949,797.999939,0.001412873971,797.999939,0.009757401422,797.999939,0.01093330514,
796.9940186,0.003163107671,796.9940186,0.0214183256,796.9940186,0.01265060622,796.9940186,0.0004539664369,796.9940186,0.009835877456,796.9940186,0.01145460736,
795.987854,0.003531393362,795.987854,0.0216113124,795.987854,0.01187090948,795.987854,0.0008289344842,795.987854,0.0109426761,795.987854,0.01224303618,
795.0158691,0.003181803972,795.0158691,0.02227283083,795.0158691,0.01150170621,795.0158691,0.003026026068,795.0158691,0.01017038245,795.0158691,0.01290623844,
794.0089111,0.002978743054,794.0089111,0.02225808986,794.0089111,0.01164005417,794.0089111,0.001073574414,794.0089111,0.01226084866,794.0089111,0.01196788903,
793.0014648,0.002714272821,793.0014648,0.02046763711,793.0014648,0.01295677572,793.0014648,0.001271566376,793.0014648,0.01110761426,793.0014648,0.01290813182,
791.9936523,0.003518814687,791.9936523,0.0222980082,791.9936523,0.01353611145,791.9936523,0.00293464493,791.9936523,0.0115492614,791.9936523,0.01405573729,
790.9854126,0.002646344248,790.9854126,0.0225633122,790.9854126,0.0123041207,790.9854126,0.001070226892,790.9854126,0.01106539089,790.9854126,0.01326289307,
790.0115967,0.00287298765,790.0115967,0.02125165425,790.0115967,0.01310255099,790.0115967,0.001456090715,790.0115967,0.009718829766,790.0115967,0.01325982437,
789.0025024,0.003978983965,789.0025024,0.02260565758,789.0025024,0.01383988559,789.0025024,0.001687259064,789.0025024,0.01212887838,789.0025024,0.0115345614,
787.9931641,0.00336429826,787.9931641,0.02285873331,787.9931641,0.0132840313,787.9931641,0.001754725934,787.9931641,0.01225568354,787.9931641,0.01278753486,
786.9832764,0.002909000963,786.9832764,0.02360097319,786.9832764,0.01119324099,786.9832764,-0.0007827588706,786.9832764,0.01115610916,786.9832764,0.0130476756,
786.0079956,0.002147910185,786.0079956,0.02230806462,786.0079956,0.01086928044,786.0079956,-3.898251816E-005,786.0079956,0.00985473115,786.0079956,0.01379777025,
784.9973755,0.003518031677,784.9973755,0.02257220075,784.9973755,0.01254465431,784.9973755,0.001472609816,784.9973755,0.01091411244,784.9973755,0.0119885914,
783.9863892,0.001621465664,783.9863892,0.02124360763,783.9863892,0.01222735364,783.9863892,0.001610682928,783.9863892,0.01017250214,783.9863892,0.01279219985,
783.0098267,0.003111873055,783.0098267,0.02218256705,783.0098267,0.01244789176,783.0098267,0.00208563637,783.0098267,0.01086877659,783.0098267,0.01382574905,
781.9981079,0.00296438206,781.9981079,0.02338341251,781.9981079,0.01246819086,781.9981079,0.002673951909,781.9981079,0.01110309921,781.9981079,0.01320017967,
780.9858398,0.00188501121,780.9858398,0.02175722085,780.9858398,0.01135394257,780.9858398,0.0006943245535,780.9858398,0.009760684334,780.9858398,0.01214019116,
780.0082397,0.002441268647,780.0082397,0.02168118581,780.0082397,0.01334267296,780.0082397,0.001600368181,780.0082397,0.01085383352,780.0082397,0.01299598161,
778.9953003,0.002732011955,778.9953003,0.02337882295,778.9953003,0.01308456995,778.9953003,0.00107149838,778.9953003,0.01030888967,778.9953003,0.01164053287,
778.0169067,0.003723590402,778.0169067,0.02511633746,778.0169067,0.01217301469,778.0169067,0.002126084873,778.0169067,0.01023146696,778.0169067,0.0127768442,
777.0031738,0.001162410481,777.0031738,0.02202330902,777.0031738,0.01214013807,777.0031738,0.001181462081,777.0031738,0.009742072783,777.0031738,0.01347997971,
775.9890137,0.002568062395,775.9890137,0.02290915884,775.9890137,0.0126638785,775.9890137,0.002381998114,775.9890137,0.01078647748,775.9890137,0.01294141356,
775.0095215,0.00291165919,775.0095215,0.02283799835,775.0095215,0.01455898676,775.0095215,0.00264764647,775.0095215,0.01010901388,775.0095215,0.01155851316,
773.9946289,0.003552793758,773.9946289,0.0222952012,773.9946289,0.0122274328,773.9946289,0.00267520221,773.9946289,0.00990131218,773.9946289,0.01326831151,
773.0143433,0.00224178005,773.0143433,0.02196225896,773.0143433,0.01142287534,773.0143433,0.00185849343,773.0143433,0.009528248571,773.0143433,0.01195974648,
771.9986572,0.002951142145,771.9986572,0.02329062484,771.9986572,0.01263091154,771.9986572,0.002317738952,771.9986572,0.009769182652,771.9986572,0.01423930191,
770.9825439,0.002461209428,770.9825439,0.02207390964,770.9825439,0.01306234766,770.9825439,0.001971672988,770.9825439,0.01036851015,770.9825439,0.01281792764,
770.0012207,0.0021377909,770.0012207,0.02324670926,770.0012207,0.01273771096,770.0012207,0.002229264705,770.0012207,0.00943030417,770.0012207,0.01341048069,
768.984436,0.0009552324191,768.984436,0.02197794244,768.984436,0.01216713153,768.984436,0.0004779625742,768.984436,0.009413426742,768.984436,0.01207636204,
768.0021973,0.003369776765,768.0021973,0.02424699813,768.0021973,0.01185920369,768.0021973,0.001760132029,768.0021973,0.01040515024,768.0021973,0.01337761618,
766.9846802,0.002731725341,766.9846802,0.02274248935,766.9846802,0.014337481,766.9846802,0.002501276322,766.9846802,0.01135768928,766.9846802,0.01284226961,
766.00177,0.00215074583,766.00177,0.02232798375,766.00177,0.01273493841,766.00177,0.002028104849,766.00177,0.009024712257,766.00177,0.01209020242,
764.9833984,0.003001080593,764.9833984,0.02358728088,764.9833984,0.01197560597,764.9833984,0.002799615264,764.9833984,0.0101862289,764.9833984,0.01302342862,
763.9998169,0.004223026801,763.9998169,0.02428236604,763.9998169,0.01447582524,763.9998169,0.002182926983,763.9998169,0.01127697155,763.9998169,0.01421450637,
763.0158081,0.00251968368,763.0158081,0.02409598418,763.0158081,0.01389472745,763.0158081,0.002024463844,763.0158081,0.01085346192,763.0158081,0.01365437917,
761.9963379,0.00249393424,761.9963379,0.02311250381,761.9963379,0.0134219341,761.9963379,0.003346533282,761.9963379,0.01053256728,761.9963379,0.01353338733,
761.0116577,0.003179691732,761.0116577,0.02494698018,761.0116577,0.01281544752,761.0116577,0.003083377145,761.0116577,0.01093662344,761.0116577,0.01419591717,
759.991394,0.002621056046,759.991394,0.024391165,759.991394,0.01328333747,759.991394,0.002807952464,759.991394,0.01020719111,759.991394,0.0135041466,
759.0059204,0.002523875562,759.0059204,0.02445532382,759.0059204,0.01377104968,759.0059204,0.003460231936,759.0059204,0.01139401458,759.0059204,0.01361575443,
757.9849243,0.002386448905,757.9849243,0.02389034815,757.9849243,0.01441098284,757.9849243,0.003441158216,757.9849243,0.01136661787,757.9849243,0.01319841854,
756.9987793,0.002699034754,756.9987793,0.02200599015,756.9987793,0.01375696901,756.9987793,0.002594935941,756.9987793,0.01008813642,756.9987793,0.01313045807,
756.0122681,0.00342114619,756.0122681,0.02246156521,756.0122681,0.01304082014,756.0122681,0.002038871869,756.0122681,0.01190546807,756.0122681,0.01398935355,
754.9901123,0.002481411677,754.9901123,0.0251650773,754.9901123,0.01412312035,754.9901123,0.002895085374,754.9901123,0.01060582511,754.9901123,0.0133093074,
754.0028687,0.003883902216,754.0028687,0.02360559255,754.0028687,0.01329129096,754.0028687,0.003792366711,754.0028687,0.01051222533,754.0028687,0.01534977742,
753.0151978,0.002677285811,753.0151978,0.02414198406,753.0151978,0.0132818697,753.0151978,0.002563479589,753.0151978,0.01011921465,753.0151978,0.01404020283,
751.9920044,0.002757358598,751.9920044,0.02447989024,751.9920044,0.01407726109,751.9920044,0.003314526752,751.9920044,0.01057850476,751.9920044,0.01303303149,
751.0036621,0.002354565077,751.0036621,0.02318676934,751.0036621,0.0133590633,751.0036621,0.002690152731,751.0036621,0.01104563475,751.0036621,0.0136100119,
750.0150146,0.002091827104,750.0150146,0.0246182438,750.0150146,0.01316282246,750.0150146,0.003139901441,750.0150146,0.0104701668,750.0150146,0.01407314371,
748.9906616,0.002265380695,748.9906616,0.0257782191,748.9906616,0.01426752284,748.9906616,0.004239651375,748.9906616,0.01044502854,748.9906616,0.01427739393,
748.0012207,0.002551683923,748.0012207,0.02199651301,748.0012207,0.0141625395,748.0012207,0.001571867382,748.0012207,0.01110418793,748.0012207,0.01308238227,
747.0114746,0.003134947503,747.0114746,0.02381675504,747.0114746,0.01390464325,747.0114746,0.003576622345,747.0114746,0.01054023206,747.0114746,0.01490676776,
745.9859619,0.003942751326,745.9859619,0.02402971685,745.9859619,0.01447697636,745.9859619,0.003021125449,745.9859619,0.01007947233,745.9859619,0.0134426523,
744.9954224,0.002473210916,744.9954224,0.02406662516,744.9954224,0.01494660694,744.9954224,0.003040675772,744.9954224,0.01172246132,744.9954224,0.01369033661,
744.0046387,0.002483910881,744.0046387,0.02385627106,744.0046387,0.01276159566,744.0046387,0.002855659695,744.0046387,0.01075171586,744.0046387,0.01383531559,
743.0134277,0.003377577057,743.0134277,0.02483464219,743.0134277,0.01412953902,743.0134277,0.003918641247,743.0134277,0.01182417013,743.0134277,0.01444130205,
741.9864502,0.00297319144,741.9864502,0.0235969834,741.9864502,0.01391052362,741.9864502,0.003341707401,741.9864502,0.0102387825,741.9864502,0.01387641951,
740.9945679,0.003464693669,740.9945679,0.02482318506,740.9945679,0.01545247342,740.9945679,0.003141961293,740.9945679,0.0113854045,740.9945679,0.01549885329,
740.0023193,0.002830124693,740.0023193,0.02411626093,740.0023193,0.01415419579,740.0023193,0.002099500271,740.0023193,0.01072990429,740.0023193,0.01379445754,
739.0097656,0.003453891259,739.0097656,0.02545955963,739.0097656,0.01496370044,739.0097656,0.004450468812,739.0097656,0.0116205113,739.0097656,0.01398443431,
738.0167847,0.002074582037,738.0167847,0.02355697192,738.0167847,0.0146094216,738.0167847,0.00368158333,738.0167847,0.01038664393,738.0167847,0.013679998,
736.9880371,0.002315058373,736.9880371,0.02370711416,736.9880371,0.01330108661,736.9880371,0.002153633395,736.9880371,0.01049514674,736.9880371,0.01359812636,
735.9943848,0.003454100108,735.9943848,0.02517363615,735.9943848,0.01523764245,735.9943848,0.003273419803,735.9943848,0.01257995982,735.9943848,0.01454849355,
735.0003662,0.002932716161,735.0003662,0.02532428503,735.0003662,0.01440081373,735.0003662,0.004303541966,735.0003662,0.01227413584,735.0003662,0.01394313388,
734.0060425,0.003221598221,734.0060425,0.02496068925,734.0060425,0.01396983862,734.0060425,0.003599643242,734.0060425,0.01098026708,734.0060425,0.01512910053,
733.0112915,0.002642723965,733.0112915,0.02440039255,733.0112915,0.01391354389,733.0112915,0.003697116859,733.0112915,0.01200088579,733.0112915,0.01456760615,
732.0162354,0.002877261257,732.0162354,0.02488085628,732.0162354,0.01404405292,732.0162354,0.004477642011,732.0162354,0.01193556003,732.0162354,0.01451559737,
730.9852905,0.002267306438,730.9852905,0.02302741446,730.9852905,0.01392447576,730.9852905,0.002964408137,730.9852905,0.01073940378,730.9852905,0.01501195785,
729.989502,0.002725056838,729.989502,0.02443519607,729.989502,0.01379253343,729.989502,0.002784087788,729.989502,0.01176618505,729.989502,0.0147488704,
728.9934692,0.003839189652,728.9934692,0.02565396763,728.9934692,0.015434823,728.9934692,0.004629467614,728.9934692,0.01163154561,728.9934692,0.01531733014,
727.9970093,0.002319846768,727.9970093,0.02519201487,727.9970093,0.0140930647,727.9970093,0.002950777067,727.9970093,0.01172461547,727.9970093,0.01443477254,
727.0002441,0.003130097874,727.0002441,0.02668831311,727.0002441,0.01541768387,727.0002441,0.004593102261,727.0002441,0.01368892007,727.0002441,0.01482576318,
726.0031128,0.002411775524,726.0031128,0.02431702241,726.0031128,0.01486730855,726.0031128,0.00405702414,726.0031128,0.01193710323,726.0031128,0.0148605844,
725.0056152,0.003189731389,725.0056152,0.02593996003,725.0056152,0.01530260872,725.0056152,0.004180422518,725.0056152,0.01268392149,725.0056152,0.01567578316,
724.0078125,0.003095943248,724.0078125,0.02530257963,724.0078125,0.01479512267,724.0078125,0.004182748497,724.0078125,0.01167579181,724.0078125,0.01467989013,
723.0096436,0.002778330119,723.0096436,0.02533290163,723.0096436,0.01481462084,723.0096436,0.003782626474,723.0096436,0.01193377748,723.0096436,0.0149149932,
722.0111694,0.002451707609,722.0111694,0.02520205453,722.0111694,0.01519675832,722.0111694,0.004322522786,722.0111694,0.01170424465,722.0111694,0.01468454953,
721.0123291,0.00293396716,721.0123291,0.02503644861,721.0123291,0.01552173682,721.0123291,0.003837257158,721.0123291,0.0110845631,721.0123291,0.01421723515,
720.0131836,0.002285729861,720.0131836,0.02545209229,720.0131836,0.01414256264,720.0131836,0.003747323994,720.0131836,0.01107675582,720.0131836,0.01440616604,
719.0136108,0.003090833314,719.0136108,0.02561008744,719.0136108,0.01536833588,719.0136108,0.003957170993,719.0136108,0.01201169007,719.0136108,0.01440611202,
718.0137329,0.002438378986,718.0137329,0.02530249767,718.0137329,0.01580309123,718.0137329,0.003991523758,718.0137329,0.01178001519,718.0137329,0.01592987403,
717.0135498,0.002497396898,717.0135498,0.02556244843,717.0135498,0.01525075268,717.0135498,0.003642869415,717.0135498,0.01101135649,717.0135498,0.01505743433,
716.0130615,0.003397847759,716.0130615,0.02591583319,716.0130615,0.01634272002,716.0130615,0.004121671896,716.0130615,0.01234867424,716.0130615,0.01535144076,
715.012146,0.003045837395,715.012146,0.02559427172,715.012146,0.01510176249,715.012146,0.004554071464,715.012146,0.01155465841,715.012146,0.0151040135,
714.0109253,0.003295694245,714.0109253,0.02656622231,714.0109253,0.01624148153,714.0109253,0.004276301246,714.0109253,0.01272475626,714.0109253,0.01584387198,
713.0093994,0.003511899151,713.0093994,0.02686283924,713.0093994,0.01566901989,713.0093994,0.004066169262,713.0093994,0.01221909933,713.0093994,0.01743843779,
712.0074463,0.002777548507,712.0074463,0.02615473606,712.0074463,0.0161403995,712.0074463,0.003587871557,712.0074463,0.01221297588,712.0074463,0.01526700053,
711.005249,0.002589285141,711.005249,0.02587893233,711.005249,0.01606880687,711.005249,0.003922846634,711.005249,0.011545646,711.005249,0.01497080084,
710.0026855,0.002373695141,710.0026855,0.02614560723,710.0026855,0.01558492146,710.0026855,0.004290418234,710.0026855,0.01162819564,710.0026855,0.01519876905,
708.9998169,0.002836951287,708.9998169,0.02598667704,708.9998169,0.01609816775,708.9998169,0.00397195667,708.9998169,0.01267765835,708.9998169,0.01676031947,
707.996521,0.002690855879,707.996521,0.02719573304,707.996521,0.01557824016,707.996521,0.003107701428,707.996521,0.01268032286,707.996521,0.01587917842,
706.992981,0.002319144085,706.992981,0.02627926879,706.992981,0.01444280054,706.992981,0.004533354193,706.992981,0.01218834892,706.992981,0.01599196158,
705.9890747,0.002932169009,705.9890747,0.0265684519,705.9890747,0.01556949317,705.9890747,0.004162807018,705.9890747,0.01144969091,705.9890747,0.01480133552,
704.9848022,0.003535908181,704.9848022,0.02728376351,704.9848022,0.01573397033,704.9848022,0.003881943412,704.9848022,0.01238319185,704.9848022,0.01599918678,
704.0161133,0.003366724355,704.0161133,0.02740658075,704.0161133,0.01567629352,704.0161133,0.004297894891,704.0161133,0.01268645376,704.0161133,0.01631836966,
703.0112305,0.003897562623,703.0112305,0.02765339427,703.0112305,0.01586242393,703.0112305,0.004829951562,703.0112305,0.01259269752,703.0112305,0.01687257923,
702.0060425,0.002014607424,702.0060425,0.02570013143,702.0060425,0.0145703638,702.0060425,0.003745600814,702.0060425,0.01241478138,702.0060425,0.01460441574,
701.0004883,0.00340460497,701.0004883,0.02682998776,701.0004883,0.01533947978,701.0004883,0.003611911088,701.0004883,0.01245508436,701.0004883,0.01535374671,
699.9946289,0.002447698498,699.9946289,0.02592165954,699.9946289,0.01577847451,699.9946289,0.003475548699,699.9946289,0.01197717618,699.9946289,0.01511583291,
698.9883423,0.002984008053,698.9883423,0.028245667,698.9883423,0.01638591662,698.9883423,0.003335629357,698.9883423,0.01297323126,698.9883423,0.01618486457,
698.0177612,0.003579154145,698.0177612,0.02733558789,698.0177612,0.01681475155,698.0177612,0.004012032412,698.0177612,0.0134667363,698.0177612,0.01656183787,
697.0108643,0.00293545262,697.0108643,0.02879598364,697.0108643,0.01632197201,697.0108643,0.00373455626,697.0108643,0.01313854195,697.0108643,0.01580607146,
696.0036621,0.002606576541,696.0036621,0.02792403288,696.0036621,0.01585265063,696.0036621,0.00316845323,696.0036621,0.01209358312,696.0036621,0.01566936821,
694.9962158,0.004033560865,694.9962158,0.02678965032,694.9962158,0.01808506995,694.9962158,0.003884346457,694.9962158,0.01273496542,694.9962158,0.01635091938,
693.9883423,0.003371811472,693.9883423,0.02750455588,693.9883423,0.01636849903,693.9883423,0.004752426874,693.9883423,0.01281091571,693.9883423,0.0164224226,
693.0161743,0.002807327081,693.0161743,0.02916610241,693.0161743,0.01694314741,693.0161743,0.004434751347,693.0161743,0.012339646,693.0161743,0.01545426995,
692.0076294,0.00195807335,692.0076294,0.02747195959,692.0076294,0.0152963344,692.0076294,0.003292720765,692.0076294,0.01168672089,692.0076294,0.01637513749,
690.9989014,0.00397096388,690.9989014,0.02849757485,690.9989014,0.01810479909,690.9989014,0.004333948251,690.9989014,0.01309294626,690.9989014,0.0170145072,
689.9896851,0.003008092288,689.9896851,0.02708452009,689.9896851,0.01602722704,689.9896851,0.004056815058,689.9896851,0.01308958512,689.9896851,0.01755222119,
689.0162354,0.002881743247,689.0162354,0.02780865878,689.0162354,0.015571828,689.0162354,0.004459779244,689.0162354,0.0123138139,689.0162354,0.01624338888,
688.0064087,0.002129440429,688.0064087,0.02784020454,688.0064087,0.01567199826,688.0064087,0.002319872845,688.0064087,0.01157076843,688.0064087,0.01447379123,
686.9963379,0.001948920311,686.9963379,0.02685727738,686.9963379,0.01614929177,686.9963379,0.004049629904,686.9963379,0.01370663289,686.9963379,0.0152339153,
685.9859009,0.002753346926,685.9859009,0.02799293958,685.9859009,0.01632616483,685.9859009,0.003594057634,685.9859009,0.0123701673,685.9859009,0.01664854586,
685.0112305,0.003156953957,685.0112305,0.0289069172,685.0112305,0.01471863687,685.0112305,0.004644119646,685.0112305,0.01325077657,685.0112305,0.01670277491,
684.0001831,0.002423567232,684.0001831,0.02713973634,684.0001831,0.0167008657,684.0001831,0.003906051395,684.0001831,0.01140281092,684.0001831,0.01615547016,
682.9887695,0.002213028958,682.9887695,0.02774535492,682.9887695,0.01631974056,682.9887695,0.003860918572,682.9887695,0.01441719104,682.9887695,0.01541832834,
682.0131836,0.003035775153,682.0131836,0.02890841104,682.0131836,0.01632060111,682.0131836,0.004335987847,682.0131836,0.01269756816,682.0131836,0.01621385664,
681.0011597,0.001506870729,681.0011597,0.02727932669,681.0011597,0.0159236975,681.0011597,0.005038175266,681.0011597,0.01253967173,681.0011597,0.01605290547,
679.9887695,0.00269530993,679.9887695,0.02853699401,679.9887695,0.01590831019,679.9887695,0.005056140479,679.9887695,0.01324333064,679.9887695,0.01631793939,
679.0122681,0.003924988676,679.0122681,0.02886337042,679.0122681,0.01658168435,679.0122681,0.005137910601,679.0122681,0.01342537813,679.0122681,0.01617736742,
677.9993286,0.003232029965,677.9993286,0.0283810813,677.9993286,0.01531754434,677.9993286,0.003576987889,677.9993286,0.01260183752,677.9993286,0.0158442203,
676.9859619,0.003923604265,676.9859619,0.02892324142,676.9859619,0.0174644161,676.9859619,0.005115619861,676.9859619,0.01443375554,676.9859619,0.01739610732,
676.0085449,0.002327628201,676.0085449,0.03024918027,676.0085449,0.01625830308,676.0085449,0.004511356354,676.0085449,0.01270942949,676.0085449,0.01603434421,
674.9946289,0.003329838393,674.9946289,0.0296876505,674.9946289,0.017510904,674.9946289,0.003679024987,674.9946289,0.0138378283,674.9946289,0.01613475755,
674.0166016,0.002692262409,674.0166016,0.02949586138,674.0166016,0.01632457785,674.0166016,0.005213539116,674.0166016,0.01311634388,674.0166016,0.0163021367,
673.0020142,0.002672884148,673.0020142,0.02844497561,673.0020142,0.0160550531,673.0020142,0.005297907162,673.0020142,0.01389911026,673.0020142,0.01623556949,
671.9871216,0.002549184253,671.9871216,0.02892758511,671.9871216,0.01688568667,671.9871216,0.005283573642,671.9871216,0.01267344691,671.9871216,0.01654083468,
671.0082397,0.00263511925,671.0082397,0.02892202511,671.0082397,0.01610652171,671.0082397,0.004247258417,671.0082397,0.01317880582,671.0082397,0.01648369618,
669.9926758,0.001623492339,669.9926758,0.02791743539,669.9926758,0.01626198553,669.9926758,0.003301015124,669.9926758,0.01176006719,669.9926758,0.01572084613,
669.0131226,0.002981636208,669.0131226,0.02874445543,669.0131226,0.0151133677,669.0131226,0.005064547062,669.0131226,0.01370842289,669.0131226,0.0160846822,
667.9970093,0.002432053443,667.9970093,0.0290859919,667.9970093,0.01672287099,667.9970093,0.005075442139,667.9970093,0.01288853213,667.9970093,0.01634992473,
667.0168457,0.002638947684,667.0168457,0.02981248125,667.0168457,0.01643788256,667.0168457,0.005554857664,667.0168457,0.01294685435,667.0168457,0.01550260931,
666.000061,0.002653532429,666.000061,0.02896978334,666.000061,0.0170419123,666.000061,0.003933373373,666.000061,0.0132885417,666.000061,0.0169920288,
664.9830933,0.003309309948,664.9830933,0.02876276523,664.9830933,0.01617188752,664.9830933,0.005402944051,664.9830933,0.01343189273,664.9830933,0.01628773101,
664.0020142,0.002711980604,664.0020142,0.02885000966,664.0020142,0.01705585793,664.0020142,0.004574161954,664.0020142,0.01386535447,664.0020142,0.01609413698,
662.984314,0.002996701514,662.984314,0.02945555188,662.984314,0.01727746241,662.984314,0.004884373862,662.984314,0.0118114017,662.984314,0.01590763964,
662.0027466,0.003232290735,662.0027466,0.02850224636,662.0027466,0.01695178822,662.0027466,0.006173704285,662.0027466,0.0124211479,662.0027466,0.01618247293,
660.984375,0.002747329185,660.984375,0.02808328718,660.984375,0.01700250059,660.984375,0.005068632774,660.984375,0.01245777495,660.984375,0.01658023149,
660.0021973,0.003015729599,660.0021973,0.02941386215,660.0021973,0.01808855124,660.0021973,0.005219198298,660.0021973,0.01288269274,660.0021973,0.01655998081,
658.9832764,0.00375766377,658.9832764,0.03091460094,658.9832764,0.01866286248,658.9832764,0.005915573798,658.9832764,0.01412389614,658.9832764,0.01780932769,
658.0004883,0.003455248196,658.0004883,0.02993889898,658.0004883,0.01892949454,658.0004883,0.004484677687,658.0004883,0.01323121507,658.0004883,0.01729138941,
657.017395,0.002753034234,657.017395,0.02852756716,657.017395,0.01624828018,657.017395,0.004629441537,657.017395,0.01332289353,657.017395,0.01583348215,
655.9974976,0.003038668539,655.9974976,0.02979748137,655.9974976,0.01853660308,655.9974976,0.004817727953,655.9974976,0.01199159864,655.9974976,0.01701442711,
655.013855,0.002769446466,655.013855,0.03016734309,655.013855,0.01803539135,655.013855,0.005893689115,655.013855,0.01539263409,655.013855,0.01669034734,
653.9934082,0.002789298305,653.9934082,0.03030840866,653.9934082,0.01792299189,653.9934082,0.005770904943,653.9934082,0.01146802958,653.9934082,0.01626881026,
653.0091553,0.002530541038,653.0091553,0.02920832299,653.0091553,0.01765268855,653.0091553,0.005689277779,653.0091553,0.01347223669,653.0091553,0.01662576385,
651.9880371,0.002452931134,651.9880371,0.03008580022,651.9880371,0.01708725095,651.9880371,0.00568361301,651.9880371,0.01305431779,651.9880371,0.01566502079,
651.0032349,0.003435391933,651.0032349,0.02958375029,651.0032349,0.01829164848,651.0032349,0.005970053375,651.0032349,0.01260516886,651.0032349,0.01701531559,
650.0181274,0.003165141679,650.0181274,0.030608261,650.0181274,0.01683159545,650.0181274,0.005303933751,650.0181274,0.01323753968,650.0181274,0.01733742841,
648.9960938,0.002933446085,648.9960938,0.03107445687,648.9960938,0.01750373468,648.9960938,0.005525493063,648.9960938,0.01319310814,648.9960938,0.01652233489,
648.010437,0.003811768955,648.010437,0.03010668978,648.010437,0.01913793571,648.010437,0.006075043231,648.010437,0.01313261874,648.010437,0.01732150652,
646.987854,0.00259746192,646.987854,0.03069634736,646.987854,0.01901070029,646.987854,0.005620908923,646.987854,0.01263528224,646.987854,0.01676352136,
646.0015259,0.002877704101,646.0015259,0.02898464352,646.0015259,0.01869045198,646.0015259,0.004395630211,646.0015259,0.01396438479,646.0015259,0.01755513251,
645.0149536,0.002189353108,645.0149536,0.02987677976,645.0149536,0.01818776689,645.0149536,0.005284438375,645.0149536,0.01204216201,645.0149536,0.01605129242,
643.9915161,0.001616580877,643.9915161,0.02990023978,643.9915161,0.01789811999,643.9915161,0.00437118113,643.9915161,0.01249507163,643.9915161,0.01568268053,
643.0043335,0.002804695629,643.0043335,0.03100895137,643.0043335,0.01971350051,643.0043335,0.006295682862,643.0043335,0.01364535093,643.0043335,0.01806464233,
642.0169067,0.002268789569,642.0169067,0.03066203929,642.0169067,0.01900380477,642.0169067,0.00594824506,642.0169067,0.01391747314,642.0169067,0.01601548865,
640.9925537,0.001806346583,640.9925537,0.03002812527,640.9925537,0.01754370518,640.9925537,0.005711283069,640.9925537,0.01376581285,640.9925537,0.01745711267,
640.0045166,0.001969462726,640.0045166,0.03000152484,640.0045166,0.01861200854,640.0045166,0.005377127789,640.0045166,0.01285000239,640.0045166,0.01634333842,
639.0162354,0.002498490503,639.0162354,0.02909626067,639.0162354,0.01611769758,639.0162354,0.005112110171,639.0162354,0.01228497364,639.0162354,0.01581396349,
637.9910278,0.002640536288,637.9910278,0.03027532436,637.9910278,0.01887898892,637.9910278,0.006103867199,637.9910278,0.01442915294,637.9910278,0.01668278873,
637.0021362,0.00214161491,637.0021362,0.02979917265,637.0021362,0.01669325307,637.0021362,0.005531470757,637.0021362,0.0124475453,637.0021362,0.01608349942,
636.0130005,0.00269351271,636.0130005,0.03146722913,636.0130005,0.01749672741,636.0130005,0.006442943588,636.0130005,0.0135237202,636.0130005,0.01844009012,
634.9868774,0.002256767824,634.9868774,0.03023005836,634.9868774,0.01841527037,634.9868774,0.006529205944,634.9868774,0.01396892965,634.9868774,0.01759136096,
633.9971924,0.002657152712,633.9971924,0.03187809885,633.9971924,0.01906471141,633.9971924,0.005765842274,633.9971924,0.01532837842,633.9971924,0.01843757927,
633.0071411,0.00300715398,633.0071411,0.03059154004,633.0071411,0.01914342679,633.0071411,0.00631496124,633.0071411,0.01394660864,633.0071411,0.01812900789,
632.0168457,0.002909053117,632.0168457,0.03048797883,632.0168457,0.01890548505,632.0168457,0.006533778738,632.0168457,0.01445797458,632.0168457,0.01870826259,
630.989624,0.002971992595,630.989624,0.03064176068,630.989624,0.01853028126,630.989624,0.005824369844,630.989624,0.01444031205,630.989624,0.01734173857,
629.9987183,0.002186178928,629.9987183,0.03093389235,629.9987183,0.01876883022,629.9987183,0.006941415835,629.9987183,0.01305119693,629.9987183,0.01775512099,
629.0076294,0.003022585064,629.0076294,0.03103611432,629.0076294,0.01911283284,629.0076294,0.006836058572,629.0076294,0.01438663248,629.0076294,0.0183516182,
628.0162354,0.002621342428,628.0162354,0.03145133704,628.0162354,0.01923877187,628.0162354,0.006188329309,628.0162354,0.01403386611,628.0162354,0.01829105429,
626.987793,0.001953652827,626.987793,0.03139484301,626.987793,0.01643314958,626.987793,0.006495361216,626.987793,0.01338984352,626.987793,0.01840841025,
625.9957886,0.002620456973,625.9957886,0.03012885898,625.9957886,0.0179912746,625.9957886,0.005904054269,625.9957886,0.01381078456,625.9957886,0.01788368821,
625.0036011,0.002896648832,625.0036011,0.0315572992,625.0036011,0.01897489652,625.0036011,0.006549887359,625.0036011,0.01456482243,625.0036011,0.01867829263,
624.0109863,0.002960837446,624.0109863,0.03132013604,624.0109863,0.01888393611,624.0109863,0.006714769173,624.0109863,0.01334027108,624.0109863,0.01820609532,
623.0182495,0.003353707027,623.0182495,0.0305484347,623.0182495,0.01971723884,623.0182495,0.006255343556,623.0182495,0.01407643221,623.0182495,0.0177253522,
621.9884033,0.002719352255,621.9884033,0.03108949959,621.9884033,0.01855594665,621.9884033,0.006409368478,621.9884033,0.0128286723,621.9884033,0.01778257452,
620.9949951,0.002673769603,620.9949951,0.03080893494,620.9949951,0.0187892653,620.9949951,0.006132588256,620.9949951,0.01299320813,620.9949951,0.01742636599,
620.0014648,0.003215000499,620.0014648,0.03161303326,620.0014648,0.01934106462,620.0014648,0.007035354152,620.0014648,0.01440148335,620.0014648,0.01848444156,
619.0075073,0.003030900611,619.0075073,0.03205391392,619.0075073,0.01963340864,619.0075073,0.007190971635,619.0075073,0.01383641176,619.0075073,0.01768649742,
618.0134277,0.002596446313,618.0134277,0.03098476306,618.0134277,0.01997871883,618.0134277,0.006796562579,618.0134277,0.01393762697,618.0134277,0.0180617813,
616.9820557,0.002599493135,616.9820557,0.03089967556,616.9820557,0.01966255158,616.9820557,0.006301671267,616.9820557,0.01354254782,616.9820557,0.01799723692,
615.9873657,0.003178987885,615.9873657,0.03180835024,615.9873657,0.02037934773,615.9873657,0.00710149901,615.9873657,0.01457223762,615.9873657,0.01850459166,
614.9923096,0.002328226808,614.9923096,0.03029217198,614.9923096,0.01876464114,614.9923096,0.006940547843,614.9923096,0.01374956779,614.9923096,0.01740699261,
613.9970703,0.003149522701,613.9970703,0.0317864567,613.9970703,0.01919796877,613.9970703,0.006515016314,613.9970703,0.01460626256,613.9970703,0.01870358735,
613.0015869,0.00292375125,613.0015869,0.0311460346,613.0015869,0.0194770582,613.0015869,0.006934314035,613.0015869,0.01475776173,613.0015869,0.01936585642,
612.0057983,0.00268142717,612.0057983,0.03172429651,612.0057983,0.02057847008,612.0057983,0.007584264036,612.0057983,0.01384873129,612.0057983,0.01931245811,
611.0097046,0.002208605874,611.0097046,0.03124610893,611.0097046,0.01928804815,611.0097046,0.006879265886,611.0097046,0.01344070304,611.0097046,0.01705962792,
610.0133667,0.002606524387,610.0133667,0.03181182966,610.0133667,0.01984427497,610.0133667,0.007435957436,610.0133667,0.01475888584,610.0133667,0.01888455823,
609.0167236,0.003540892852,609.0167236,0.03280479088,609.0167236,0.02122699842,609.0167236,0.007596565876,609.0167236,0.01477932092,609.0167236,0.01919905096,
607.9829102,0.002790757222,607.9829102,0.03215863183,607.9829102,0.02006025799,607.9829102,0.007874781266,607.9829102,0.01464168262,607.9829102,0.01887220144,
606.9857788,0.002577879466,606.9857788,0.03152172267,606.9857788,0.01992413402,606.9857788,0.007397960406,606.9857788,0.01376519818,606.9857788,0.01740623824,
605.9884033,0.002856050618,605.9884033,0.03202755377,605.9884033,0.02097085118,605.9884033,0.0079305619,605.9884033,0.01453599334,605.9884033,0.01791732758,
604.9906006,0.002931100549,604.9906006,0.03254153207,604.9906006,0.02090897039,604.9906006,0.00855491776,604.9906006,0.01578738727,604.9906006,0.0199308563,
603.9927368,0.002889899537,603.9927368,0.03244358301,603.9927368,0.02170826122,603.9927368,0.00849066209,603.9927368,0.01531143021,603.9927368,0.01921017095,
602.9945068,0.003375463886,602.9945068,0.03351046517,602.9945068,0.02206802741,602.9945068,0.009318416938,602.9945068,0.01521689165,602.9945068,0.02075772732,
601.9959717,0.002480474534,601.9959717,0.03231459484,601.9959717,0.02185428329,601.9959717,0.009484035894,601.9959717,0.01558041386,601.9959717,0.01991800964,
600.9972534,0.003247729968,600.9972534,0.03388400748,600.9972534,0.02261806652,600.9972534,0.009450435638,600.9972534,0.01531724911,600.9972534,0.02055957913,
599.99823,0.003157371189,599.99823,0.03276001662,599.99823,0.02305976115,599.99823,0.009828516282,599.99823,0.01649173535,599.99823,0.02147255465,
598.9989624,0.003010985674,598.9989624,0.03299380466,598.9989624,0.02228596434,598.9989624,0.01034796424,598.9989624,0.0159680862,598.9989624,0.02078113332,
597.9993896,0.003083168529,597.9993896,0.03344243765,597.9993896,0.0240117982,597.9993896,0.01063145045,597.9993896,0.01635433175,597.9993896,0.02070426568,
596.9996338,0.003118078224,596.9996338,0.03433163092,596.9996338,0.02434245683,596.9996338,0.01099906396,596.9996338,0.01627649739,596.9996338,0.02188714035,
595.9995728,0.002947232686,595.9995728,0.0350093469,595.9995728,0.02581381984,595.9995728,0.0118561713,595.9995728,0.01764066517,595.9995728,0.02220719494,
594.9992065,0.002835283754,594.9992065,0.03501173109,594.9992065,0.02510256879,594.9992065,0.01173740812,594.9992065,0.01679701917,594.9992065,0.02227800712,
593.9985962,0.003008431057,593.9985962,0.03448072821,593.9985962,0.02583250217,593.9985962,0.01239203475,593.9985962,0.01733740047,593.9985962,0.02296021953,
592.9978027,0.002799771493,592.9978027,0.03510368988,592.9978027,0.02693284675,592.9978027,0.01247644983,592.9978027,0.01759122498,592.9978027,0.0234367419,
591.9967041,0.003067265963,591.9967041,0.03569540009,591.9967041,0.02808602154,591.9967041,0.01406731457,591.9967041,0.01736315712,591.9967041,0.02370700613,
590.9953003,0.002722634235,590.9953003,0.03608441353,590.9953003,0.02761416696,590.9953003,0.01401945576,590.9953003,0.01749408618,590.9953003,0.02431800775,
589.9937134,0.002581681358,589.9937134,0.03684449568,589.9937134,0.02882143296,589.9937134,0.01546124462,589.9937134,0.0197921712,589.9937134,0.02564792521,
588.9917603,0.002348813228,588.9917603,0.03627927601,588.9917603,0.03023655154,588.9917603,0.01623444073,588.9917603,0.01887379773,588.9917603,0.0264192149,
587.989563,0.002761761425,587.989563,0.0371176526,587.989563,0.03108596802,587.989563,0.01662985235,587.989563,0.02016182244,587.989563,0.02647949196,
586.9872437,0.003103999188,586.9872437,0.03778993338,586.9872437,0.03287956119,586.9872437,0.01837586798,586.9872437,0.02023832314,586.9872437,0.02772993036,
585.9844971,0.00336228963,585.9844971,0.03849143162,585.9844971,0.03215138242,585.9844971,0.0190834552,585.9844971,0.02098622732,585.9844971,0.02883946896,
584.9816284,0.00286722905,584.9816284,0.0382524319,584.9816284,0.03484643623,584.9816284,0.02086306736,584.9816284,0.02290468477,584.9816284,0.03028978407,
584.015625,0.00266819587,584.015625,0.03908865154,584.015625,0.03622150794,584.015625,0.02044356801,584.015625,0.02306213602,584.015625,0.03195786104,
583.012146,0.001984362956,583.012146,0.04037532955,583.012146,0.03754844144,583.012146,0.02271605656,583.012146,0.02413292602,583.012146,0.03243847936,
582.0084839,0.002895059297,582.0084839,0.04065421596,582.0084839,0.03908641636,582.0084839,0.02436578274,582.0084839,0.02512442879,582.0084839,0.03338107467,
581.0045776,0.002883828012,581.0045776,0.04083964974,581.0045776,0.04094872624,581.0045776,0.02505246364,581.0045776,0.02639041282,581.0045776,0.03588131443,
580.0003662,0.002674004063,580.0003662,0.04291362315,580.0003662,0.04161292315,580.0003662,0.02680996992,580.0003662,0.02706479281,580.0003662,0.03679473698,
578.9958496,0.003118860302,578.9958496,0.0429125689,578.9958496,0.0436010994,578.9958496,0.02823135816,578.9958496,0.02770777419,578.9958496,0.03951542079,
577.9911499,0.00269835745,577.9911499,0.04361569509,577.9911499,0.04560345039,577.9911499,0.03036062419,577.9911499,0.02901942842,577.9911499,0.04070114717,
576.9862671,0.002571265213,576.9862671,0.0448301658,576.9862671,0.04723652452,576.9862671,0.03107420728,576.9862671,0.02942125872,576.9862671,0.04219246283,
576.0182495,0.00341705,576.0182495,0.04441027343,576.0182495,0.04942467436,576.0182495,0.03288603947,576.0182495,0.03142014146,576.0182495,0.04400009662,
575.0127563,0.002162530553,575.0127563,0.04536159709,575.0127563,0.05003178865,575.0127563,0.03339384869,575.0127563,0.03150065243,575.0127563,0.0446670875,
574.0070801,0.002604936017,574.0070801,0.04594089836,574.0070801,0.05065115914,574.0070801,0.03486385569,574.0070801,0.03223847225,574.0070801,0.04593790695,
573.0010986,0.003300597891,573.0010986,0.04718576372,573.0010986,0.05244339257,573.0010986,0.03668664396,573.0010986,0.03311866522,573.0010986,0.04732934758,
571.994873,0.002860323759,571.994873,0.04636466503,571.994873,0.053617578,571.994873,0.03687735274,571.994873,0.03331952542,571.994873,0.04739904031,
570.9884644,0.002929979935,570.9884644,0.04760468006,570.9884644,0.05352542177,570.9884644,0.03636720031,570.9884644,0.03408796713,570.9884644,0.048123613,
569.9816895,0.002797192195,569.9816895,0.04644042253,569.9816895,0.05414249375,569.9816895,0.03807843849,569.9816895,0.03387264535,569.9816895,0.04896340519,
569.012085,0.002535331994,569.012085,0.04734170437,569.012085,0.05436197296,569.012085,0.03799499944,569.012085,0.03433896974,569.012085,0.04843397066,
568.0048218,0.003066848731,568.0048218,0.04622053355,568.0048218,0.05367873609,568.0048218,0.03859997168,568.0048218,0.03408449516,568.0048218,0.04797892645,
566.9973755,0.002640041523,566.9973755,0.04596009105,566.9973755,0.05376893282,566.9973755,0.0383801423,566.9973755,0.03372910246,566.9973755,0.04756317288,
565.989624,0.003208533162,565.989624,0.04665056616,565.989624,0.05389941484,565.989624,0.03808852658,565.989624,0.03447744623,565.989624,0.04869170114,
564.9816284,0.003107649274,564.9816284,0.0471900925,564.9816284,0.05395961553,564.9816284,0.03766157851,564.9816284,0.03352925554,564.9816284,0.04915250838,
564.0108032,0.002420573728,564.0108032,0.04623861611,564.0108032,0.0527437292,564.0108032,0.03737704828,564.0108032,0.03298444673,564.0108032,0.04764766246,
563.0023804,0.00297295698,563.0023804,0.04623651132,563.0023804,0.05296332017,563.0023804,0.0371574387,563.0023804,0.03287629411,563.0023804,0.04657433927,
561.9936523,0.00275425869,561.9936523,0.0459568426,561.9936523,0.05140257254,561.9936523,0.03624122962,561.9936523,0.0315489769,561.9936523,0.04598049447,
560.9847412,0.00275480561,560.9847412,0.04529846832,560.9847412,0.05059708655,560.9847412,0.03532546386,560.9847412,0.03101309389,560.9847412,0.04568778723,
560.0129395,0.00276225619,560.0129395,0.04476717114,560.0129395,0.05114809424,560.0129395,0.03530662134,560.0129395,0.03136025742,560.0129395,0.04464261606,
559.00354,0.003384151263,559.00354,0.04584362358,559.00354,0.05070776865,559.00354,0.03570042923,559.00354,0.03153057396,559.00354,0.04494386166,
557.9938354,0.003168401076,557.9938354,0.04439986497,557.9938354,0.04981730506,557.9938354,0.03486223146,557.9938354,0.0307235755,557.9938354,0.04363487288,
556.9839478,0.002938945079,556.9839478,0.04445196688,556.9839478,0.04991039261,556.9839478,0.03430190682,556.9839478,0.03050786071,556.9839478,0.0433581844,
556.0111694,0.002675462514,556.0111694,0.04403407499,556.0111694,0.04939587414,556.0111694,0.03370523825,556.0111694,0.02986779623,556.0111694,0.04202985764,
555.0007935,0.002532520099,555.0007935,0.04436502978,555.0007935,0.04967518523,555.0007935,0.0331138894,555.0007935,0.02916823328,555.0007935,0.04228004813,
553.9901733,0.002858812455,553.9901733,0.04412515461,553.9901733,0.04888946563,553.9901733,0.03355282918,553.9901733,0.02947893366,553.9901733,0.04223902151,
553.0167236,0.002301786095,553.0167236,0.04458446801,553.0167236,0.04897310957,553.0167236,0.0332975015,553.0167236,0.02987034619,553.0167236,0.0420220755,
552.0055542,0.00285909907,552.0055542,0.04468427226,552.0055542,0.04934189841,552.0055542,0.03376972675,552.0055542,0.02969319373,552.0055542,0.04180586338,
550.9942627,0.002720107557,550.9942627,0.04472823068,550.9942627,0.04884531721,550.9942627,0.03330132738,550.9942627,0.02956512943,550.9942627,0.04106758535,
549.982605,0.003439670894,549.982605,0.04557754472,549.982605,0.04933232814,549.982605,0.03358314559,549.982605,0.03039241023,549.982605,0.04296846315,
549.0083008,0.002357401885,549.0083008,0.04534352571,549.0083008,0.04929031059,549.0083008,0.03325711563,549.0083008,0.02942934632,549.0083008,0.04221656919,
547.9961548,0.00259157666,547.9961548,0.04491610453,547.9961548,0.04940100759,547.9961548,0.03304170445,547.9961548,0.02970331162,547.9961548,0.04252915457,
546.9838257,0.002868714277,546.9838257,0.04581689835,546.9838257,0.05085671321,546.9838257,0.03416236863,546.9838257,0.03115079179,546.9838257,0.04440075532,
546.0087891,0.003009943059,546.0087891,0.04582175985,546.0087891,0.0509988144,546.0087891,0.0342586562,546.0087891,0.03124432825,546.0087891,0.04419722781,
544.9960327,0.003194138175,544.9960327,0.04607895389,544.9960327,0.05229425058,544.9960327,0.03441487253,544.9960327,0.03169862181,544.9960327,0.04480645806,
543.9829712,0.00269210618,543.9829712,0.04653082788,543.9829712,0.0515880771,543.9829712,0.03537345305,543.9829712,0.03213906288,543.9829712,0.04423224926,
543.0072632,0.002765174024,543.0072632,0.04709974676,543.0072632,0.05191063508,543.0072632,0.03569629788,543.0072632,0.03240205348,543.0072632,0.04499318823,
541.9937744,0.002826060168,541.9937744,0.04681017995,541.9937744,0.05273586512,541.9937744,0.03606379777,541.9937744,0.03216069192,541.9937744,0.04572822154,
541.0175171,0.002921692561,541.0175171,0.0478245765,541.0175171,0.05380707979,541.0175171,0.03634842485,541.0175171,0.0335996747,541.0175171,0.04749634489,
540.0036011,0.003008378902,540.0036011,0.04788795859,540.0036011,0.05453703552,540.0036011,0.03632151708,540.0036011,0.03411481902,540.0036011,0.04732516408,
538.9893799,0.002536633983,538.9893799,0.04758093506,538.9893799,0.05396380648,538.9893799,0.03638051078,538.9893799,0.03309746087,538.9893799,0.04681966454,
538.0125732,0.002472403925,538.0125732,0.04760852084,538.0125732,0.05288875476,538.0125732,0.03603825718,538.0125732,0.03281847015,538.0125732,0.04730891064,
536.9978027,0.002674837364,536.9978027,0.04790934548,536.9978027,0.05421471968,536.9978027,0.03712873533,536.9978027,0.03335295245,536.9978027,0.04798889905,
535.9829712,0.002743369667,535.9829712,0.0478047803,535.9829712,0.0540754348,535.9829712,0.03728155792,535.9829712,0.03359399736,535.9829712,0.04806346819,
535.0054321,0.002188338432,535.0054321,0.04745952785,535.0054321,0.05366734043,535.0054321,0.0368758291,535.0054321,0.03263506293,535.0054321,0.04769368097,
533.9901123,0.003024670528,533.9901123,0.04755739495,533.9901123,0.05301748216,533.9901123,0.03712377325,533.9901123,0.03232814744,533.9901123,0.04693806544,
533.012085,0.002680802019,533.012085,0.04801792651,533.012085,0.05430538207,533.012085,0.0366387628,533.012085,0.03325482458,533.012085,0.04809663445,
531.9962769,0.002953513758,531.9962769,0.04830017313,531.9962769,0.05402771011,531.9962769,0.03629008308,531.9962769,0.03316303343,531.9962769,0.04723069444,
531.0178833,0.002933367854,531.0178833,0.04805606604,531.0178833,0.05239417776,531.0178833,0.03654194251,531.0178833,0.03276088089,531.0178833,0.04648017883,
530.0015259,0.002739384072,530.0015259,0.0476042442,530.0015259,0.05209700018,530.0015259,0.03594081104,530.0015259,0.03080284968,530.0015259,0.04552344233,
528.9850464,0.002518121619,528.9850464,0.04756920785,528.9850464,0.0517463088,528.9850464,0.03567114845,528.9850464,0.03100544773,528.9850464,0.04597266763,
528.0059204,0.003409040393,528.0059204,0.04679536074,528.0059204,0.05260213837,528.0059204,0.03465266526,528.0059204,0.03240258247,528.0059204,0.04659941047,
526.9889526,0.002507915488,526.9889526,0.04717049748,526.9889526,0.05161848292,526.9889526,0.03485227376,526.9889526,0.03114656359,526.9889526,0.04471058398,
526.0094604,0.002820614725,526.0094604,0.04700359702,526.0094604,0.05091102049,526.0094604,0.03377753124,526.0094604,0.03081352077,526.0094604,0.04460804909,
524.9920044,0.003229030874,524.9920044,0.04729768261,524.9920044,0.05077881366,524.9920044,0.03393978998,524.9920044,0.03160799295,524.9920044,0.04466172308,
524.012085,0.003023236757,524.012085,0.04720553011,524.012085,0.04984613508,524.012085,0.03254047036,524.012085,0.03026186302,524.012085,0.04335355014,
522.9941406,0.002957240678,522.9941406,0.04644998536,522.9941406,0.04879989848,522.9941406,0.03218566999,522.9941406,0.02979939431,522.9941406,0.04264422134,
522.0137329,0.002912102267,522.0137329,0.0467142351,522.0137329,0.04861844704,522.0137329,0.03154240549,522.0137329,0.02966794372,522.0137329,0.0418963097,
520.9954224,0.002842266811,520.9954224,0.04641106725,520.9954224,0.0469500944,520.9954224,0.0306595657,520.9954224,0.02890542336,520.9954224,0.04119299725,
520.0145874,0.002908688271,520.0145874,0.04611119255,520.0145874,0.04701017588,520.0145874,0.03060731664,520.0145874,0.02886771411,520.0145874,0.04075004905,
518.9957886,0.002617852762,518.9957886,0.04587676749,518.9957886,0.04578335956,518.9957886,0.0297269281,518.9957886,0.02836287022,518.9957886,0.0396900177,
518.0145264,0.002944730688,518.0145264,0.04642955959,518.0145264,0.04579612985,518.0145264,0.02904381044,518.0145264,0.02820840292,518.0145264,0.03976115957,
516.9953003,0.002993234899,516.9953003,0.04648409411,516.9953003,0.04506999627,516.9953003,0.02864429355,516.9953003,0.02722932771,516.9953003,0.03908100724,
516.0136108,0.003469077405,516.0136108,0.04667575657,516.0136108,0.04451861233,516.0136108,0.02878871001,516.0136108,0.02858614735,516.0136108,0.03953824565,
514.9939575,0.002616238082,514.9939575,0.04509070143,514.9939575,0.04406842217,514.9939575,0.02696823888,514.9939575,0.02632041089,514.9939575,0.03750661761,
514.0117798,0.002346444875,514.0117798,0.04575620592,514.0117798,0.04269754142,514.0117798,0.02702368982,514.0117798,0.02669558115,514.0117798,0.03606073186,
512.9916992,0.00274641742,512.9916992,0.04484046996,512.9916992,0.04272464663,512.9916992,0.02662076801,512.9916992,0.0260767173,512.9916992,0.03701731563,
512.0091553,0.002571030986,512.0091553,0.04532404244,512.0091553,0.04206037149,512.0091553,0.025484154,512.0091553,0.02591179498,512.0091553,0.03595259413,
510.9885559,0.003087261692,510.9885559,0.04561204836,510.9885559,0.04172620922,510.9885559,0.02622223459,510.9885559,0.02641651779,510.9885559,0.03601035848,
510.0055847,0.003470903961,510.0055847,0.04588111117,510.0055847,0.04124132916,510.0055847,0.02596548758,510.0055847,0.02571424842,510.0055847,0.03672261536,
508.9845581,0.002953539835,508.9845581,0.04560701549,508.9845581,0.04163619876,508.9845581,0.0250357911,508.9845581,0.02587275021,508.9845581,0.03547767922,
508.0011902,0.00272883405,508.0011902,0.04521659389,508.0011902,0.04060515389,508.0011902,0.02471386455,508.0011902,0.02554235235,508.0011902,0.03591820598,
507.0175781,0.003082334297,507.0175781,0.04590038583,507.0175781,0.04070762917,507.0175781,0.02479070611,507.0175781,0.02516702563,507.0175781,0.03517094254,
505.9959412,0.003171425778,505.9959412,0.04586879909,505.9959412,0.03991502523,505.9959412,0.0240147803,505.9959412,0.0246096421,505.9959412,0.03430731595,
505.0119019,0.003288964741,505.0119019,0.045385506,505.0119019,0.04008007422,505.0119019,0.02400772087,505.0119019,0.02505191602,505.0119019,0.03418634087,
503.9897461,0.003450107761,503.9897461,0.04587826133,503.9897461,0.04061706364,503.9897461,0.02478832193,503.9897461,0.02499029972,503.9897461,0.03520252183,
503.0053101,0.00306387688,503.0053101,0.04644667357,503.0053101,0.03991689533,503.0053101,0.0238314122,503.0053101,0.02448303998,503.0053101,0.03388400748,
501.9828491,0.002579858527,501.9828491,0.04474682361,501.9828491,0.03859657794,501.9828491,0.02366397716,501.9828491,0.0241241958,501.9828491,0.03389041871,
500.9979248,0.002585118636,500.9979248,0.04550348967,500.9979248,0.03964679316,500.9979248,0.02317114919,500.9979248,0.02354423702,500.9979248,0.03340299055,
500.0128784,0.00272560399,500.0128784,0.0462112911,500.0128784,0.03964651003,500.0128784,0.02354330756,500.0128784,0.02428444661,500.0128784,0.03351994604,
498.9897156,0.00331017049,498.9897156,0.04558415711,498.9897156,0.03994942084,498.9897156,0.0236017108,498.9897156,0.02429591678,498.9897156,0.03286875412,
498.0042419,0.002386995591,498.0042419,0.04524620995,498.0042419,0.03936121613,498.0042419,0.02285513282,498.0042419,0.02404558472,498.0042419,0.03316241875,
497.0185547,0.003209263319,497.0185547,0.04625695571,497.0185547,0.0398414731,497.0185547,0.02389453165,497.0185547,0.02393766493,497.0185547,0.03290871158,
495.9947205,0.003432156518,495.9947205,0.04628152028,495.9947205,0.03983103484,495.9947205,0.02265433595,495.9947205,0.02330908738,495.9947205,0.03323336318,
495.0086365,0.002702655271,495.0086365,0.04640449956,495.0086365,0.03870296851,495.0086365,0.02283398807,495.0086365,0.02422348596,495.0086365,0.03305650875,
493.984314,0.003297833027,493.984314,0.04650037363,493.984314,0.03975037858,493.984314,0.02414108068,493.984314,0.02375014685,493.984314,0.03314350173,
492.9978638,0.002552491147,492.9978638,0.04564646631,492.9978638,0.03881190345,492.9978638,0.02403256297,492.9978638,0.02396545559,492.9978638,0.03225149587,
492.0111389,0.002792007755,492.0111389,0.04610048234,492.0111389,0.03909375146,492.0111389,0.02368343994,492.0111389,0.02251393534,492.0111389,0.03226630017,
490.9862671,0.003785446752,490.9862671,0.0475226827,490.9862671,0.04099751264,490.9862671,0.02360479906,490.9862671,0.0244523678,490.9862671,0.03320145234,
489.9991455,0.003536743345,489.9991455,0.04707011953,489.9991455,0.04062104225,489.9991455,0.02386184968,489.9991455,0.02435674891,489.9991455,0.03260425478,
489.0118713,0.003132209647,489.0118713,0.0464717932,489.0118713,0.03961134702,489.0118713,0.02424070239,489.0118713,0.0232604444,489.0118713,0.03171585873,
487.9863281,0.002755430993,487.9863281,0.0470918715,487.9863281,0.03993670642,487.9863281,0.0238462612,487.9863281,0.02319474146,487.9863281,0.03291102871,
486.9986267,0.002837863285,486.9986267,0.04738985747,486.9986267,0.04083623737,486.9986267,0.02380617335,486.9986267,0.02416475303,486.9986267,0.03405747563,
486.0107117,0.003328221152,486.0107117,0.04802110791,486.0107117,0.04104533419,486.0107117,0.0242741257,486.0107117,0.02445146255,486.0107117,0.03372437507,
484.9844971,0.002708672313,484.9844971,0.04689501226,484.9844971,0.03941243142,484.9844971,0.02447923273,484.9844971,0.02190878429,484.9844971,0.03215227649,
483.9962158,0.003259518417,483.9962158,0.04762550443,483.9962158,0.041189868,483.9962158,0.02459586225,483.9962158,0.02366064116,483.9962158,0.03398616984,
483.0076904,0.003111351514,483.0076904,0.04888819158,483.0076904,0.04272721708,483.0076904,0.02483453229,483.0076904,0.02494547144,483.0076904,0.03603553027,
482.0189209,0.003835141892,482.0189209,0.04914204404,482.0189209,0.04088745639,482.0189209,0.02525887266,482.0189209,0.02425302006,482.0189209,0.03445760533,
480.9920044,0.002984372899,480.9920044,0.04911549389,480.9920044,0.04220090434,480.9920044,0.02478067577,480.9920044,0.0243671257,480.9920044,0.03472932428,
480.0028687,0.003251250833,480.0028687,0.04901721328,480.0028687,0.04220284522,480.0028687,0.02548278123,480.0028687,0.02428811416,480.0028687,0.03460932523,
479.0135498,0.002835023217,479.0135498,0.04777735844,479.0135498,0.04213714972,479.0135498,0.02502723597,479.0135498,0.02358703502,479.0135498,0.03489687294,
477.9859924,0.003066692268,477.9859924,0.04922086746,477.9859924,0.0430184491,477.9859924,0.02587181702,477.9859924,0.02414099872,477.9859924,0.03510523587,
476.9962463,0.003103034571,476.9962463,0.04937504977,476.9962463,0.04300958663,476.9962463,0.02593287081,476.9962463,0.02406993695,476.9962463,0.03486511856,
476.0063477,0.002812485676,476.0063477,0.04966197908,476.0063477,0.04338687658,476.0063477,0.0266915895,476.0063477,0.02523445524,476.0063477,0.03567665443,
475.0162354,0.003057098947,475.0162354,0.04983855784,475.0162354,0.04448239133,475.0162354,0.02641041204,475.0162354,0.02518814802,475.0162354,0.03539867327,
473.987793,0.002665252658,473.987793,0.05045104772,473.987793,0.04518177733,473.987793,0.02711783163,473.987793,0.02478083968,473.987793,0.03631231561,
472.9973145,0.00290042744,472.9973145,0.05067192763,472.9973145,0.04591131955,472.9973145,0.027945593,472.9973145,0.02550822869,472.9973145,0.03607667983,
472.0066223,0.002759625204,472.0066223,0.05069354177,472.0066223,0.04615514725,472.0066223,0.02778870612,472.0066223,0.02541199327,472.0066223,0.03672774136,
471.0157166,0.003226214321,471.0157166,0.05077032,471.0157166,0.04728683084,471.0157166,0.0290168263,471.0157166,0.02633100003,471.0157166,0.03690975904,
469.9865417,0.00319163478,469.9865417,0.05161653087,469.9865417,0.0478656441,469.9865417,0.02979676053,469.9865417,0.02666290663,469.9865417,0.03804142401,
468.9952087,0.003269090317,468.9952087,0.05196676776,468.9952087,0.04862238467,468.9952087,0.03030549549,468.9952087,0.02695873566,468.9952087,0.03851991519,
468.0037842,0.00290001044,468.0037842,0.05191766843,468.0037842,0.04984665662,468.0037842,0.03073230013,468.0037842,0.02692119591,468.0037842,0.03874256089,
467.0121155,0.002671946306,467.0121155,0.05269334093,467.0121155,0.05048841238,467.0121155,0.03178241849,467.0121155,0.02769706771,467.0121155,0.04004274309,
465.9821167,0.003261187579,465.9821167,0.05322489515,465.9821167,0.05125358328,465.9821167,0.03371008113,465.9821167,0.02869923972,465.9821167,0.0408103019,
464.9901123,0.003182638437,464.9901123,0.0538289994,464.9901123,0.05367539451,464.9901123,0.0343439579,464.9901123,0.0293404907,464.9901123,0.04272878543,
463.9978333,0.002937120618,463.9978333,0.05436009541,463.9978333,0.05467177182,463.9978333,0.03544035181,463.9978333,0.03004221804,463.9978333,0.04316978529,
463.0054321,0.003101392183,463.0054321,0.05495279655,463.0054321,0.05636839941,463.0054321,0.0360860154,463.0054321,0.03032317571,463.0054321,0.04427879676,
462.0127869,0.002983460668,462.0127869,0.05564651266,462.0127869,0.05754256248,462.0127869,0.03773862869,462.0127869,0.03144599125,462.0127869,0.04543042555,
460.981842,0.002975094132,460.981842,0.05582144856,460.981842,0.05965754762,460.981842,0.03915711865,460.981842,0.03160284087,460.981842,0.04695352539,
459.9887695,0.002950907452,459.9887695,0.05629165843,459.9887695,0.06120329723,459.9887695,0.04039399326,459.9887695,0.03284231573,459.9887695,0.0480773747,
458.9956055,0.002942958614,458.9956055,0.05804262683,458.9956055,0.0637281239,458.9956055,0.04156212881,458.9956055,0.03460324183,458.9956055,0.05079365522,
458.0022278,0.00282910862,458.0022278,0.05873614922,458.0022278,0.06599817425,458.0022278,0.0438048318,458.0022278,0.0347487554,458.0022278,0.05192811042,
457.0086975,0.002878616331,457.0086975,0.05911371112,457.0086975,0.06703346968,457.0086975,0.04529594257,457.0086975,0.0357179679,457.0086975,0.05303763598,
456.0148926,0.002904258203,456.0148926,0.05976381898,456.0148926,0.0687225312,456.0148926,0.04725407064,456.0148926,0.03659141809,456.0148926,0.05490544066,
454.9827576,0.002789193997,454.9827576,0.0605876632,454.9827576,0.07235500962,454.9827576,0.04950352013,454.9827576,0.0384433493,454.9827576,0.05665450543,
453.9885864,0.003497415921,453.9885864,0.06177348271,453.9885864,0.07460794598,453.9885864,0.05193511397,453.9885864,0.04014432058,453.9885864,0.05911584571,
452.9943237,0.002950412221,452.9943237,0.06288523227,452.9943237,0.07768160105,452.9943237,0.05437719822,452.9943237,0.04097535089,452.9943237,0.06102138385,
451.9998169,0.003099827794,451.9998169,0.06332392246,451.9998169,0.08120691031,451.9998169,0.05709966645,451.9998169,0.04285656661,451.9998169,0.0642593801,
451.0051575,0.003655451583,451.0051575,0.06513582915,451.0051575,0.08478435129,451.0051575,0.05989014357,451.0051575,0.04346491769,451.0051575,0.06693226099,
450.0102234,0.003970284946,450.0102234,0.06681857258,450.0102234,0.08860106766,450.0102234,0.06372986734,450.0102234,0.0462570712,450.0102234,0.07010496408,
449.0152283,0.003023523604,449.0152283,0.06757888198,449.0152283,0.09180317819,449.0152283,0.06596210599,449.0152283,0.0470925346,449.0152283,0.07224438339,
447.9817505,0.003458248684,447.9817505,0.06892596185,447.9817505,0.0959802717,447.9817505,0.0691697672,447.9817505,0.04944758862,447.9817505,0.07425945997,
446.9862671,0.003595988965,446.9862671,0.07088174671,446.9862671,0.1008127108,446.9862671,0.07329230756,446.9862671,0.05187306181,446.9862671,0.07891745865,
445.9907227,0.003333359957,445.9907227,0.07165852189,445.9907227,0.1050880253,445.9907227,0.07649149001,445.9907227,0.05376251787,445.9907227,0.08226713538,
444.994873,0.002695362084,444.994873,0.07360070199,444.994873,0.1105145067,444.994873,0.08085330576,444.994873,0.05641679838,444.994873,0.08602304012,
443.9989014,0.002786380239,443.9989014,0.07498646528,443.9989014,0.1164713427,443.9989014,0.08577664942,443.9989014,0.05870443955,443.9989014,0.09061517566,
443.0027771,0.003123944625,443.0027771,0.07686812431,443.0027771,0.122543104,443.0027771,0.09092463553,443.0027771,0.06126639619,443.0027771,0.09467401356,
442.0064392,0.003557987278,442.0064392,0.07913015783,442.0064392,0.129436627,442.0064392,0.09696181118,442.0064392,0.06504095346,442.0064392,0.1000601128,
441.0099487,0.003034523921,441.0099487,0.08120385557,441.0099487,0.136891678,441.0099487,0.1028500497,441.0099487,0.0682040602,441.0099487,0.1058518142,
440.0132446,0.002884687856,440.0132446,0.08363834769,440.0132446,0.1456099153,440.0132446,0.1098984182,440.0132446,0.07214122266,440.0132446,0.112729907,
439.0163879,0.003379272763,439.0163879,0.08688434213,439.0163879,0.1550832391,439.0163879,0.1172964647,439.0163879,0.07727169245,439.0163879,0.1197479218,
437.9809875,0.003364402568,437.9809875,0.08957906812,437.9809875,0.1654885113,437.9809875,0.12552993,437.9809875,0.08205992728,437.9809875,0.1287017614,
436.9837036,0.00302904984,436.9837036,0.0923429057,436.9837036,0.1751061529,436.9837036,0.1346746981,436.9837036,0.08693923056,436.9837036,0.136964485,
435.9862976,0.003162768669,435.9862976,0.09778009355,435.9862976,0.1881384701,435.9862976,0.1456084251,435.9862976,0.09430931509,435.9862976,0.1480917931,
434.988739,0.002797530964,434.988739,0.1014708728,434.988739,0.2008278221,434.988739,0.1559789032,434.988739,0.1008188874,434.988739,0.1591185927,
433.9909973,0.003459657775,433.9909973,0.1059098169,433.9909973,0.2147518545,433.9909973,0.1680086851,433.9909973,0.1086520031,433.9909973,0.171494469,
432.992981,0.003147854004,432.992981,0.1105340049,432.992981,0.2300474048,432.992981,0.1811191589,432.992981,0.1168118864,432.992981,0.1843782067,
431.994873,0.002754935995,431.994873,0.1150109097,431.994873,0.2449694872,431.994873,0.1937784553,431.994873,0.1244022995,431.994873,0.198887378,
430.9966431,0.003701868467,430.9966431,0.1219189763,430.9966431,0.262661159,430.9966431,0.2094820589,430.9966431,0.1347191036,430.9966431,0.2151924372,
429.9980774,0.003172208089,429.9980774,0.1258608103,429.9980774,0.2759976089,429.9980774,0.2229914218,429.9980774,0.1451043189,429.9980774,0.2308527082,
428.9994812,0.002575848252,428.9994812,0.1314737797,428.9994812,0.2957459092,428.9994812,0.2408106178,428.9994812,0.1548108608,428.9994812,0.2480513006,
428.0006714,0.003059705719,428.0006714,0.1381214857,428.0006714,0.314096123,428.0006714,0.2564569414,428.0006714,0.1673612148,428.0006714,0.2653279603,
427.0016785,0.003262622049,427.0016785,0.1434657574,427.0016785,0.3305746317,427.0016785,0.2727502584,427.0016785,0.1781940609,427.0016785,0.2842353284,
426.0024414,0.003774975659,426.0024414,0.1491547972,426.0024414,0.3488053977,426.0024414,0.2901106775,426.0024414,0.189602524,426.0024414,0.3025844693,
425.0031433,0.003364611417,425.0031433,0.1554167718,425.0031433,0.3629952967,425.0031433,0.3033573329,425.0031433,0.1997791976,425.0031433,0.3184234798,
424.0036316,0.003099358641,424.0036316,0.1599525064,424.0036316,0.3776857853,424.0036316,0.3190852106,424.0036316,0.2087887675,424.0036316,0.3333688378,
423.0039673,0.003585888073,423.0039673,0.1643638909,423.0039673,0.3904099762,423.0039673,0.3309382796,423.0039673,0.21751827,423.0039673,0.3484498858,
422.0040588,0.002742015058,422.0040588,0.1680459231,422.0040588,0.3994126916,422.0040588,0.3424832523,422.0040588,0.2249300629,422.0040588,0.3595193326,
421.0040283,0.002726359293,421.0040283,0.1709328294,421.0040283,0.4078813195,421.0040283,0.3522180021,421.0040283,0.2309331596,421.0040283,0.3694576621,
420.0038452,0.003673673142,420.0038452,0.173415035,420.0038452,0.4132120311,420.0038452,0.3589574099,420.0038452,0.2345731407,420.0038452,0.3761186898,
419.003418,0.003018701216,419.003418,0.174165681,419.003418,0.4146092236,419.003418,0.363350302,419.003418,0.2373712063,419.003418,0.3793948591,
418.0028687,0.002979394747,418.0028687,0.1742968708,418.0028687,0.4155082703,418.0028687,0.3644039929,418.0028687,0.2374268323,418.0028687,0.3813486993,
417.0021667,0.003494597739,417.0021667,0.1742426157,417.0021667,0.4118953645,417.0021667,0.3643731475,417.0021667,0.2378653437,417.0021667,0.3813515306,
416.0012817,0.003145924537,416.0012817,0.1727824956,416.0012817,0.4053583443,416.0012817,0.3601688445,416.0012817,0.2348412424,416.0012817,0.3749288917,
415.0001831,0.002707656473,415.0001831,0.1698251367,415.0001831,0.3975668252,415.0001831,0.3535530269,415.0001831,0.2293226123,415.0001831,0.3677818775,
413.9989624,0.00330946641,413.9989624,0.1675469279,413.9989624,0.3862193823,413.9989624,0.3469137847,413.9989624,0.2246762961,413.9989624,0.3572866917,
412.9975891,0.003430173732,412.9975891,0.1644077599,412.9975891,0.376142323,412.9975891,0.3352280259,412.9975891,0.2181090862,412.9975891,0.3487499952,
411.9959717,0.003801793559,411.9959717,0.1604246795,411.9959717,0.3641037345,411.9959717,0.3244151175,411.9959717,0.2113097757,411.9959717,0.3387135863,
410.9942322,0.002444730839,410.9942322,0.1549281478,410.9942322,0.3475876153,410.9942322,0.3100285828,410.9942322,0.2028117478,410.9942322,0.3240016699,
409.9923706,0.002921145177,409.9923706,0.1514733732,409.9923706,0.3356962204,409.9923706,0.2991372049,409.9923706,0.1950876713,409.9923706,0.3120838702,
408.9903259,0.003230491187,408.9903259,0.1472765505,408.9903259,0.3183102608,408.9903259,0.2882438898,408.9903259,0.1877301782,408.9903259,0.2994966805,
407.9880676,0.00278669293,407.9880676,0.1425739527,407.9880676,0.3076210916,407.9880676,0.2734323144,407.9880676,0.1789581925,407.9880676,0.2851614952,
406.9856567,0.003289069049,406.9856567,0.138264671,406.9856567,0.294249773,406.9856567,0.2623666525,406.9856567,0.1698782295,406.9856567,0.2707093656,
405.9830933,0.003068725811,405.9830933,0.1349973679,405.9830933,0.2830378115,405.9830933,0.2490004897,405.9830933,0.1611069143,405.9830933,0.2568413317,
405.0189514,0.003151426092,405.0189514,0.1309947371,405.0189514,0.2723642886,405.0189514,0.2392143905,405.0189514,0.1551760435,405.0189514,0.2478613108,
404.0159912,0.002789793303,404.0159912,0.1267124712,404.0159912,0.2589863539,404.0159912,0.2277069688,404.0159912,0.1488218158,404.0159912,0.2360550463,
403.0129395,0.002704374492,403.0129395,0.1242360696,403.0129395,0.2497559935,403.0129395,0.2182686627,403.0129395,0.1415632665,403.0129395,0.2258868515,
402.0097351,0.002813970903,402.0097351,0.1212817505,402.0097351,0.2403558046,402.0097351,0.2083227634,402.0097351,0.1363167912,402.0097351,0.2158990204,
401.0063477,0.003541258164,401.0063477,0.1181083396,401.0063477,0.2314252704,401.0063477,0.1996994913,401.0063477,0.1293384433,401.0063477,0.2081519961,
400.0028076,0.002770306077,400.0028076,0.1158493161,400.0028076,0.2231135517,400.0028076,0.1901077628,400.0028076,0.1252417117,400.0028076,0.1993836313,
398.9990845,0.002874420956,398.9990845,0.1121899337,398.9990845,0.2169873416,398.9990845,0.1836233437,398.9990845,0.1199886277,398.9990845,0.1905526519,
397.9952087,0.00376400887,397.9952087,0.1109578833,397.9952087,0.2091231495,397.9952087,0.1765056252,397.9952087,0.1158838943,397.9952087,0.1847122908,
396.9911804,0.002830124693,396.9911804,0.1077100486,396.9911804,0.2003709823,396.9911804,0.1696068496,396.9911804,0.1108817533,396.9911804,0.1774358004,
395.986969,0.002645771252,395.986969,0.1061611176,395.986969,0.19377397,395.986969,0.1621628404,395.986969,0.1071649417,395.986969,0.1693419814,
394.9825745,0.003017919138,394.9825745,0.1048438326,394.9825745,0.1869017482,394.9825745,0.1569293886,394.9825745,0.102981247,394.9825745,0.1636724919,
394.0166931,0.002543221461,394.0166931,0.1022739857,394.0166931,0.1829569489,394.0166931,0.1518539637,394.0166931,0.09955710173,394.0166931,0.1580900699,
393.0120239,0.003657853231,393.0120239,0.1025860012,393.0120239,0.1758709103,393.0120239,0.1469674408,393.0120239,0.09740415961,393.0120239,0.1536327899,
392.0071716,0.002685177838,392.0071716,0.09967502952,392.0071716,0.1716232002,392.0071716,0.1416202188,392.0071716,0.09184644371,392.0071716,0.1478466094,
391.0021973,0.003410840407,391.0021973,0.09881215543,391.0021973,0.1688080132,391.0021973,0.1362745166,391.0021973,0.09044136852,391.0021973,0.143334344,
389.9970093,0.004022848792,389.9970093,0.09810424596,389.9970093,0.1640343666,389.9970093,0.1316735148,389.9970093,0.08879233897,389.9970093,0.1391872615,
388.9916992,0.00346819032,388.9916992,0.09605877101,388.9916992,0.1582111567,388.9916992,0.1280782223,388.9916992,0.08521972597,388.9916992,0.1331881285,
387.9862061,0.002891332842,387.9862061,0.09447302669,387.9862061,0.1539559811,387.9862061,0.1237024218,387.9862061,0.08060609549,387.9862061,0.1289071441,
387.0192566,0.002842370886,387.0192566,0.09353487939,387.0192566,0.1509079933,387.0192566,0.1202242523,387.0192566,0.07915212214,387.0192566,0.125292033,
386.0134888,0.003232056042,386.0134888,0.09232116491,386.0134888,0.147847265,386.0134888,0.1174886227,386.0134888,0.07840515673,386.0134888,0.1233092248,
385.0075378,0.003240375314,385.0075378,0.0918598175,385.0075378,0.1438633353,385.0075378,0.1134388596,385.0075378,0.07564692944,385.0075378,0.1195056736,
384.0014343,0.002277012449,384.0014343,0.09182421863,384.0014343,0.1420043111,384.0014343,0.1107015833,384.0014343,0.07362597436,384.0014343,0.1164615229,
382.9951782,0.003153407946,382.9951782,0.09101534635,382.9951782,0.1403531283,382.9951782,0.1080573052,382.9951782,0.07206124067,382.9951782,0.1142904684,
381.988739,0.003945258912,381.988739,0.09250770509,381.988739,0.1392453313,381.988739,0.1092067733,381.988739,0.07225035131,381.988739,0.1128716841,
380.9821777,0.002803210635,380.9821777,0.09027773142,380.9821777,0.1365386397,380.9821777,0.1038657352,380.9821777,0.06912979484,380.9821777,0.1095988676,
380.0141907,0.00327782752,380.0141907,0.09024593234,380.0141907,0.1347514093,380.0141907,0.1034764498,380.0141907,0.06816971302,380.0141907,0.1090372428,
379.0072937,0.002597409999,379.0072937,0.08971612155,379.0072937,0.1326460838,379.0072937,0.101798214,379.0072937,0.06712506711,379.0072937,0.1070741415,
378.0002747,0.002397146774,378.0002747,0.08897587657,378.0002747,0.1318334937,378.0002747,0.1011862233,378.0002747,0.06624440849,378.0002747,0.1055372432,
376.9930725,0.003690276761,376.9930725,0.08967834711,376.9930725,0.1331674457,376.9930725,0.1003237367,376.9930725,0.06746729463,376.9930725,0.1063874364,
375.9857483,0.002943036612,375.9857483,0.09037653357,375.9857483,0.1340003759,375.9857483,0.0996960327,375.9857483,0.0673841238,375.9857483,0.106663473,
375.0169983,0.003581268247,375.0169983,0.09079725295,375.0169983,0.1334089935,375.0169983,0.09996888787,375.0169983,0.06666652858,375.0169983,0.1063575074,
374.0093689,0.00299130613,374.0093689,0.09049879014,374.0093689,0.1340440065,374.0093689,0.1007177457,374.0093689,0.06669381261,374.0093689,0.106222868,
373.0015564,0.002165860496,373.0015564,0.09018290788,373.0015564,0.1347938776,373.0015564,0.1001501083,373.0015564,0.06671454757,373.0015564,0.1059942916,
371.9936523,0.002472950611,371.9936523,0.09070362151,371.9936523,0.1355803162,371.9936523,0.09981915355,371.9936523,0.06618510932,371.9936523,0.1061109826,
370.9855347,0.002371014329,370.9855347,0.09050901979,370.9855347,0.1380949765,370.9855347,0.1017499864,370.9855347,0.06664775312,370.9855347,0.1065330729,
370.0160522,0.002320835833,370.0160522,0.09190798551,370.0160522,0.1397077888,370.0160522,0.1014106125,370.0160522,0.06763169169,370.0160522,0.1079289466,
369.0076904,0.00311380229,369.0076904,0.09220720083,369.0076904,0.1409382224,369.0076904,0.1035046354,369.0076904,0.06693355739,369.0076904,0.1083034799,
367.9991455,0.003161960281,367.9991455,0.09352187067,367.9991455,0.1419191211,367.9991455,0.103944391,367.9991455,0.06837076694,367.9991455,0.1093461663,
366.9904785,0.002581551205,366.9904785,0.09320930392,366.9904785,0.1432451606,366.9904785,0.104013823,366.9904785,0.06721788645,366.9904785,0.1101841033,
365.9816284,0.003053814173,365.9816284,0.09473666549,365.9816284,0.1452932358,365.9816284,0.1051412448,365.9816284,0.06956940144,365.9816284,0.1118602231,
365.0114136,0.002626941772,365.0114136,0.09443023801,365.0114136,0.1455794722,365.0114136,0.1054006517,365.0114136,0.06965232641,365.0114136,0.1129565835,
364.0023193,0.003197267652,364.0023193,0.09605254233,364.0023193,0.1458704025,364.0023193,0.1072000265,364.0023193,0.07050538808,364.0023193,0.1141897812,
362.9930115,0.002778903348,362.9930115,0.0957930088,362.9930115,0.1468787044,362.9930115,0.1076971442,362.9930115,0.07092807442,362.9930115,0.1144518182,
361.9835815,0.00326906424,361.9835815,0.09470196068,361.9835815,0.147904858,361.9835815,0.1090104207,361.9835815,0.07121646404,361.9835815,0.1161500663,
361.0127869,0.004023031797,361.0127869,0.09865225852,361.0127869,0.1505858153,361.0127869,0.1099573374,361.0127869,0.07296701521,361.0127869,0.1182777807,
360.0031128,0.003269846551,360.0031128,0.09826696664,360.0031128,0.1495213062,360.0031128,0.1090057343,360.0031128,0.07283272594,360.0031128,0.1188790575,
358.9931946,0.002215526765,358.9931946,0.09845094383,358.9931946,0.150115937,358.9931946,0.1088140681,358.9931946,0.07242644578,358.9931946,0.1183866635,
357.9832153,0.002866916358,357.9832153,0.09767185152,357.9832153,0.1483951509,357.9832153,0.1098055094,357.9832153,0.07209458202,357.9832153,0.1175812855,
357.0119019,0.003242644249,357.0119019,0.09950228035,357.0119019,0.1504448652,357.0119019,0.1099099591,357.0119019,0.07363048196,357.0119019,0.1201141924,
356.0016174,0.002770749154,356.0016174,0.09904523939,356.0016174,0.1479675323,356.0016174,0.1085958257,356.0016174,0.07287579775,356.0016174,0.1184923723,
354.9911804,0.003127307864,354.9911804,0.1000830233,354.9911804,0.1484455317,354.9911804,0.1083828062,354.9911804,0.07220143825,354.9911804,0.1189618409,
353.9805908,0.00314216991,353.9805908,0.09948085994,353.9805908,0.1465922296,353.9805908,0.108494848,353.9805908,0.07117602229,353.9805908,0.1177961826,
353.0086975,0.003005668055,353.0086975,0.09946481138,353.0086975,0.1475210935,353.0086975,0.1064530835,353.0086975,0.07164646685,353.0086975,0.117692776,
351.9978027,0.003589046188,351.9978027,0.09893271327,351.9978027,0.1453446746,351.9978027,0.1058831215,351.9978027,0.0709272176,351.9978027,0.1165729612,
350.9868164,0.003569966881,350.9868164,0.09948571026,350.9868164,0.1443840563,350.9868164,0.1053565368,350.9868164,0.06970067322,350.9868164,0.1138873845,
350.0145569,0.002894537989,350.0145569,0.09927237034,350.0145569,0.1427785158,350.0145569,0.1034759283,350.0145569,0.06899259239,350.0145569,0.113586314,
349.0032349,0.003405413823,349.0032349,0.09951654077,349.0032349,0.1416948736,349.0032349,0.1023792848,349.0032349,0.06847403944,349.0032349,0.1113559455,
347.9918213,0.003435522318,347.9918213,0.09909492731,347.9918213,0.1393836737,347.9918213,0.1002858728,347.9918213,0.06610323489,347.9918213,0.1110396385,
347.0191345,0.003009499749,347.0191345,0.09832786024,347.0191345,0.1381923556,347.0191345,0.09839214385,347.0191345,0.06668131799,347.0191345,0.1087153405,
346.0074158,0.003223945387,346.0074158,0.09830056131,346.0074158,0.135056898,346.0074158,0.09615986794,346.0074158,0.06550238281,346.0074158,0.1073852181,
344.995575,0.003098107176,344.995575,0.09841055423,344.995575,0.1330517828,344.995575,0.09458479285,344.995575,0.06483921409,344.995575,0.1058354303,
343.983551,0.002857718151,343.983551,0.09805671126,343.983551,0.1306867003,343.983551,0.09288583696,343.983551,0.06368978322,343.983551,0.1054727882,
343.0103455,0.004126585089,343.0103455,0.09868841618,343.0103455,0.1296098083,343.0103455,0.09224525839,343.0103455,0.06385644525,343.0103455,0.1051792651,
341.9981079,0.002634546254,341.9981079,0.09811930358,341.9981079,0.1261521727,341.9981079,0.08903735876,341.9981079,0.06206278503,341.9981079,0.1014399379,
340.9856567,0.002616081852,340.9856567,0.0970942229,340.9856567,0.1229613125,340.9856567,0.08674643934,340.9856567,0.06070172414,340.9856567,0.09994738549,
340.0120239,0.00280685816,340.0120239,0.09767243266,340.0120239,0.1208503544,340.0120239,0.08538127691,340.0120239,0.05956406891,340.0120239,0.09734769911,
338.9993286,0.003652345156,338.9993286,0.09716117382,338.9993286,0.1186896563,338.9993286,0.08346677572,338.9993286,0.05869966745,338.9993286,0.09725666046,
337.9865112,0.00378348818,337.9865112,0.09693139791,337.9865112,0.1185877025,337.9865112,0.08244825155,337.9865112,0.0589520894,337.9865112,0.09632641077,
337.0125427,0.002985519823,337.0125427,0.09768027812,337.0125427,0.1159662828,337.0125427,0.08016567677,337.0125427,0.05653224513,337.0125427,0.09552904963,
335.9994202,0.002760094125,335.9994202,0.09662809968,335.9994202,0.1128408983,335.9994202,0.07818505168,335.9994202,0.05547435582,335.9994202,0.09337584674,
334.9862366,0.003373168176,334.9862366,0.09739029408,334.9862366,0.1109940112,334.9862366,0.07651609182,334.9862366,0.05495423451,334.9862366,0.09139662236,
334.0118103,0.002664679661,334.0118103,0.09604436904,334.0118103,0.1086755693,334.0118103,0.07466036081,334.0118103,0.05419592187,334.0118103,0.08933574706,
332.998291,0.00297428621,332.998291,0.0971339792,332.998291,0.1078330055,332.998291,0.07276216894,332.998291,0.05330100656,332.998291,0.0885585621,
331.9846497,0.003154659411,331.9846497,0.09700780362,331.9846497,0.1048029065,331.9846497,0.07177745551,331.9846497,0.05265993997,331.9846497,0.08766032755,
331.0099182,0.00313374796,331.0099182,0.09675801545,331.0099182,0.1026660651,331.0099182,0.06898885965,331.0099182,0.05089969933,331.0099182,0.08475619555,
329.9960022,0.003055091714,329.9960022,0.09686227888,329.9960022,0.101442948,329.9960022,0.06741484255,329.9960022,0.05030912906,329.9960022,0.08434058726,
328.9819641,0.003363541793,328.9819641,0.09639217705,328.9819641,0.09896288067,328.9819641,0.06564135104,328.9819641,0.05028971285,328.9819641,0.08230762184,
328.0067749,0.00259472779,328.0067749,0.09559918195,328.0067749,0.09658063203,328.0067749,0.06239134073,328.0067749,0.0485593006,328.0067749,0.08022327721,
326.9924622,0.003174085403,326.9924622,0.09667741507,326.9924622,0.09321729094,326.9924622,0.06103273481,326.9924622,0.04694822058,326.9924622,0.07913661748,
326.0170593,0.002495027846,326.0170593,0.09618428349,326.0170593,0.09221161157,326.0170593,0.0590429157,326.0170593,0.04708053544,326.0170593,0.07740401477,
325.002533,0.003030535532,325.002533,0.09636522084,325.002533,0.09022407234,325.002533,0.05803392828,325.002533,0.04578123242,325.002533,0.07458271086,
323.9878235,0.003279835917,323.9878235,0.09721780568,323.9878235,0.08972691,323.9878235,0.05653708056,323.9878235,0.04682102054,323.9878235,0.0750521794,
323.0120239,0.003530349582,323.0120239,0.09766928852,323.0120239,0.08886888623,323.0120239,0.05599704385,323.0120239,0.04595638067,323.0120239,0.07643453032,
321.9970703,0.003458718536,321.9970703,0.09780810773,321.9970703,0.08749761432,321.9970703,0.05447778478,321.9970703,0.04456235468,321.9970703,0.07390468568,
320.9819641,0.00284492434,320.9819641,0.09729290009,320.9819641,0.08527746052,320.9819641,0.05272835493,320.9819641,0.04377826303,320.9819641,0.07271926105,
320.0058289,0.001698277658,320.0058289,0.09692974389,320.0058289,0.08362353593,320.0058289,0.05156790465,320.0058289,0.04201634228,320.0058289,0.07125776261,
318.9904785,0.003234872594,318.9904785,0.09949238598,318.9904785,0.08487716317,318.9904785,0.0521518141,318.9904785,0.04388719052,318.9904785,0.0724273324,
318.0140686,0.003118755994,318.0140686,0.09909184277,318.0140686,0.08336081356,318.0140686,0.05041938648,318.0140686,0.04238460585,318.0140686,0.07074654847,
316.9984741,0.003667590441,316.9984741,0.098295331,316.9984741,0.08231049776,316.9984741,0.05053965002,316.9984741,0.04231431708,316.9984741,0.0710009858,
315.9827271,0.003296581097,315.9827271,0.09906582534,315.9827271,0.08184403181,315.9827271,0.04923597351,315.9827271,0.04204494506,315.9827271,0.0695560649,
315.0059814,0.002854122315,315.0059814,0.09814938158,315.0059814,0.080929555,315.0059814,0.04901199788,315.0059814,0.04066547006,315.0059814,0.06795277447,
313.9899902,0.002528275829,313.9899902,0.101837188,313.9899902,0.08211987466,313.9899902,0.04814090952,313.9899902,0.04185263813,313.9899902,0.07142387331,
313.01297,0.003180474043,313.01297,0.1025626287,313.01297,0.0823276788,313.01297,0.04908039421,313.01297,0.04274412617,313.01297,0.0708084628,
311.9967346,0.002503228839,311.9967346,0.1029995307,311.9967346,0.08306801319,311.9967346,0.04822602868,311.9967346,0.0426896885,311.9967346,0.07103978842,
311.0194702,0.003463963047,311.0194702,0.1050151959,311.0194702,0.08551704139,311.0194702,0.05054973811,311.0194702,0.04388804734,311.0194702,0.07323656976,
310.0029602,0.004456457682,310.0029602,0.1064803451,310.0029602,0.08719865233,310.0029602,0.05101636797,310.0029602,0.04452824965,310.0029602,0.07423873246,
308.9863892,0.003172494937,308.9863892,0.1071112379,308.9863892,0.08737062663,308.9863892,0.05070500448,308.9863892,0.04489661381,308.9863892,0.07602385432,
308.0087585,0.002912884112,308.0087585,0.1071409211,308.0087585,0.09365645051,308.0087585,0.05070925131,308.0087585,0.04754278436,308.0087585,0.07962879539,
306.9918823,0.005627228413,306.9918823,0.1091953889,306.9918823,0.09495516866,306.9918823,0.05289951712,306.9918823,0.04948974028,306.9918823,0.08416000754,
306.0140381,0.003971826285,306.0140381,0.1110571548,306.0140381,0.1006438211,306.0140381,0.05397324637,306.0140381,0.04967997596,306.0140381,0.08907571435,
304.9969482,0.006435245741,304.9969482,0.1156177148,304.9969482,0.1067594141,304.9969482,0.05870183185,304.9969482,0.05940311402,304.9969482,0.09590817988,
304.0188293,0.006569492165,304.0188293,0.1214036122,304.0188293,0.1161470935,304.0188293,0.06427891552,304.0188293,0.06511733681,304.0188293,0.1166809127,
303.0014954,0.003719648113,303.0014954,0.1232105792,303.0014954,0.1260135025,303.0014954,0.06781343371,303.0014954,0.06622273475,303.0014954,0.1186540648,
301.9840393,0.01049867366,301.9840393,0.1240521669,301.9840393,0.1298967898,301.9840393,0.07706462592,301.9840393,0.09089055657,301.9840393,0.1293571889,
301.0055847,-0.0009927303763,301.0055847,0.1275939047,301.0055847,0.1476913095,301.0055847,0.0805137977,301.0055847,0.08898861706,301.0055847,0.1399343461,
299.987854,0.0005954228691,299.987854,0.1219235733,299.987854,0.159714371,299.987854,0.08084566891,299.987854,0.08333525807,299.987854,0.1483252496,
299.0091858,-0.002514826367,299.0091858,0.141726613,299.0091858,0.1817992926,299.0091858,0.09040145576,299.0091858,0.09730002284,299.0091858,0.1730399728,
297.991272,0.02031095885,297.991272,0.1480887681,297.991272,0.2006524205,297.991272,0.1116163433,297.991272,0.1224190369,297.991272,0.1920188367,
297.0123596,-0.006676388439,297.0123596,0.1467879862,297.0123596,0.2149684131,297.0123596,0.08618769795,297.0123596,0.104575932,297.0123596,0.1914590746,
295.9941406,-0.01215484552,295.9941406,0.1460025758,295.9941406,0.2515467107,295.9941406,0.1209911779,295.9941406,0.1394312382,295.9941406,0.2322370708,
295.0150146,-0.02364763804,295.0150146,0.1390886158,295.0150146,0.24975577,295.0150146,0.1016231477,295.0150146,0.1349482387,295.0150146,0.2140751779,
293.996582,0.02736671269,293.996582,0.2394702733,293.996582,0.2971503437,293.996582,0.1361618042,293.996582,0.1953485757,293.996582,0.2624232769,
293.0171814,-0.003512461903,293.0171814,0.2413630188,293.0171814,0.3080409765,293.0171814,0.1056332663,293.0171814,0.1969789863,293.0171814,0.1770054996,
291.9985657,-0.021111615,291.9985657,0.1818326861,291.9985657,0.1548738331,291.9985657,0.06656205654,291.9985657,0.2234536856,291.9985657,0.05918335915,
291.0189819,-0.03640488163,291.0189819,0.1716116667,291.0189819,0.07748903334,291.0189819,0.1033078954,291.0189819,0.1326758862,291.0189819,-0.1614916474,
290.0000916,0.05445125699,290.0000916,0.1621180177,290.0000916,-0.03369860351,290.0000916,0.1749141067,290.0000916,0.162097007,290.0000916,-0.3504103422,
288.9810791,0.01776272617,288.9810791,0.06329429895,288.9810791,-0.2334072292,288.9810791,0.04712505266,288.9810791,0.04972559959,288.9810791,-0.537707448,
288.0011597,-0.01309303101,288.0011597,0.03448462114,288.0011597,-0.3093331158,288.0011597,-0.132064715,288.0011597,0.08136953413,288.0011597,-0.6828740835,
286.9818726,0.02708504349,286.9818726,0.2680472136,286.9818726,-0.2728376091,286.9818726,0.165290609,286.9818726,0.07665072381,286.9818726,-0.6134022474,
286.00177,0.1005625278,286.00177,0.0827485621,286.00177,-0.2380240262,286.00177,-0.08622190356,286.00177,0.0106267808,286.00177,-0.7198534012,
284.9822998,0.09091758728,284.9822998,0.04060091823,284.9822998,-0.3069921434,284.9822998,-0.2249127477,284.9822998,0.09373902529,284.9822998,-0.6608216166,
284.0019531,-0.1527135968,284.0019531,-0.01121831127,284.0019531,-0.4075799286,284.0019531,0.6042948365,284.0019531,-0.07786542922,284.0019531,-0.6987074018,
282.9822083,0.06912785023,282.9822083,0.03945143521,282.9822083,-0.4531479478,282.9822083,-0.1545800418,282.9822083,-0.1619433761,282.9822083,-0.7488603592,
282.0016479,0.04200775921,282.0016479,0.03472180665,282.0016479,-0.3399299383,282.0016479,-0.09019102901,282.0016479,0.5872431993,282.0016479,-0.6497317553,
280.98172,0.1589981467,280.98172,0.2305185646,280.98172,-0.2639729083,280.98172,0.09914527833,280.98172,0.3812384605,280.98172,-0.5901549459,
280.0009155,-0.0645550862,280.0009155,-0.1564533263,280.0009155,-0.2915607989,280.0009155,-0.1178716943,280.0009155,0.1179097593,280.0009155,-0.6265538931,
278.9807434,-0.2482739836,278.9807434,0.00820139423,278.9807434,-0.5477859974,278.9807434,-0.220719561,278.9807434,-0.04275282472,278.9807434,-0.8351409435,
277.9997559,-0.02034235187,277.9997559,0.2370631099,277.9997559,-0.5275588036,277.9997559,0.05349411815,277.9997559,0.6544874907,277.9997559,-0.7970610857,
277.0186157,-0.1235176921,277.0186157,-0.3689332902,277.0186157,-0.5316419601,277.0186157,-0.3194490969,277.0186157,-0.2206367701,277.0186157,-0.7832769156,
275.9981079,-0.1437695622,275.9981079,-0.1166979671,275.9981079,-0.4838567376,275.9981079,-0.2652650476,275.9981079,-0.06731729209,275.9981079,-0.9046999812,
275.0167847,0.1552624106,275.0167847,-0.04899900034,275.0167847,0.0141001232,275.0167847,-0.0435218364,275.0167847,0.8341186047,275.0167847,-0.5086326599,
273.9960938,0.4642547667,273.9960938,0.7741152644,273.9960938,-0.1303450167,273.9960938,1.003870845,273.9960938,0.0478358753,273.9960938,-0.4576607645,
273.0145264,0.1448151767,273.0145264,-0.02853327803,273.0145264,-0.2253810614,273.0145264,0.1235040575,273.0145264,-0.08211748302,273.0145264,-0.5220988989,
271.9935913,-0.1401401907,271.9935913,-0.1664171666,271.9935913,-0.469645083,271.9935913,-0.1980672777,271.9935913,-0.23962605,271.9935913,-0.7778211236,
271.0118713,-0.1078372449,271.0118713,-0.08651041985,271.0118713,-0.3846120238,271.0118713,0.5844979286,271.0118713,-0.140924558,271.0118713,-0.6412320137,
269.9907227,0.05987811089,269.9907227,-0.1129542068,269.9907227,-0.05874303356,269.9907227,-0.008253712207,269.9907227,0.4047801197,269.9907227,-0.5317001939,
269.0087585,0.1035329252,269.0087585,0.494992435,269.0087585,-0.03126407787,269.0087585,0.07227214426,269.0087585,-0.2039906681,269.0087585,-0.5116930008,
267.9873962,0.04070603848,267.9873962,0.2699297369,267.9873962,0.1382514983,267.9873962,0.3404073119,267.9873962,-0.1723222435,267.9873962,-0.436697036,
267.0052185,-0.4580885172,267.0052185,10,267.0052185,-0.6308057904,267.0052185,-0.4175339043,267.0052185,0.704505384,267.0052185,-0.8831341863,
265.9836731,0.20005849,265.9836731,0.2034150064,265.9836731,-0.08218690008,265.9836731,-0.2314775735,265.9836731,0.3176323771,265.9836731,-0.1638712287,
265.0012817,-0.1021674946,265.0012817,-0.07141091675,265.0012817,0.06904757768,265.0012817,0.1600762904,265.0012817,10,265.0012817,-0.44275105,
264.0187988,-0.5824266076,264.0187988,-0.3050633371,264.0187988,-0.3590323925,264.0187988,-0.2327295244,264.0187988,10,264.0187988,-0.2036490589,
262.9969177,0.2681084573,262.9969177,10,262.9969177,-0.02690221742,262.9969177,0.01226564217,262.9969177,0.4722356796,262.9969177,-0.3463012874,
262.0142212,-0.165330261,262.0142212,10,262.0142212,-0.1094030216,262.0142212,-0.1971721202,262.0142212,-0.2075323313,262.0142212,-0.363065213,
260.992157,0.1286089569,260.992157,0.6076871753,260.992157,-0.0072039878,260.992157,0.03344478831,260.992157,0.3708148301,260.992157,-0.1530557722,
260.0092773,-0.04986630753,260.0092773,0.1432066858,260.0092773,0.2489246279,260.0092773,0.0263230782,260.0092773,0.1192187071,260.0092773,-0.2169249058,
258.986969,-0.2531529367,258.986969,0.760632515,258.986969,0.4933478534,258.986969,-0.1029936448,258.986969,0.3212722242,258.986969,-0.2402578592,
258.0038757,-0.06328903884,258.0038757,0.1290194243,258.0038757,0.5787222981,258.0038757,10,258.0038757,0.3181000948,258.0038757,0.09363088757,
256.9813538,0.06502192467,256.9813538,-0.1921666712,256.9813538,-0.2867541313,256.9813538,-0.2515786886,256.9813538,0.3347044587,256.9813538,-0.0239379853,
255.9980774,-0.01577533595,255.9980774,0.6527839303,255.9980774,0.02583126538,255.9980774,0.2097329348,255.9980774,0.2316977829,255.9980774,-0.1841310859,
255.0146942,0.04557377845,255.0146942,-0.2296531051,255.0146942,0.7324389219,255.0146942,-0.1089647114,255.0146942,0.8473796248,255.0146942,-0.2126069069,
253.9918823,-0.4216371179,253.9918823,0.2826720476,253.9918823,-0.1396025866,253.9918823,-0.3434441388,253.9918823,-0.3797599673,253.9918823,-0.4146155119,
253.008316,-0.04270289838,253.008316,0.07735752314,253.008316,0.4632968903,253.008316,-0.007711010054,253.008316,0.7390210629,253.008316,0.222818166,
251.9852905,0.05232996121,251.9852905,10,251.9852905,0.1826002598,251.9852905,0.09700980783,251.9852905,-0.187309131,251.9852905,-0.03445654362,
251.0014954,-0.1688075364,251.0014954,10,251.0014954,0.4298787713,251.0014954,0.2298557907,251.0014954,0.1322224587,251.0014954,0.5267437696,
250.0176544,0.051218573,250.0176544,0.2287640125,250.0176544,0.4084895253,250.0176544,0.0430169329,250.0176544,0.1800865084,250.0176544,0.2427318543,
248.9943542,0.1272369921,248.9943542,0.1444102973,248.9943542,0.06508561224,248.9943542,0.06863496453,248.9943542,0.2487433851,248.9943542,0.4449739456,
248.0102844,-0.05203616247,248.0102844,0.2062841803,248.0102844,-0.1321724206,248.0102844,-0.03257604316,248.0102844,0.2320729494,248.0102844,0.002097757533,
246.9867706,0.02946330979,246.9867706,0.209620297,246.9867706,0.109403573,246.9867706,0.1011838391,246.9867706,0.3426302671,246.9867706,-0.005250475835,
246.0025177,0.6205214858,246.0025177,0.2255946696,246.0025177,-0.05036626011,246.0025177,10,246.0025177,0.1904459149,246.0025177,0.3186676204,
245.018158,10,245.018158,10,245.018158,-0.267636627,245.018158,10,245.018158,-0.4903244078,245.018158,-0.2638755441,
243.9943695,0.3939136565,243.9943695,10,243.9943695,10,243.9943695,10,243.9943695,0.8197943568,243.9943695,-0.01349165943,
243.0098572,0.167721644,243.0098572,0.7477871776,243.0098572,0.1648731977,243.0098572,0.05593762174,243.0098572,10,243.0098572,0.3482949734,
241.9858398,0.08699021488,241.9858398,-0.01960582286,241.9858398,0.2264661342,241.9858398,0.4227263033,241.9858398,0.1252571195,241.9858398,0.152161032,
241.0010986,-0.03968472779,241.0010986,0.0142065892,241.0010986,0.03248082474,241.0010986,-0.1304652542,241.0010986,0.3849503398,241.0010986,0.1683207899,
240.0163269,-0.2250214368,240.0163269,0.2842891812,240.0163269,0.3381666243,240.0163269,0.3499765098,240.0163269,0.02725066058,240.0163269,0.0659436062,
238.9920502,-0.2116300166,238.9920502,-0.3980488479,238.9920502,0.8890459538,238.9920502,10,238.9920502,-0.1011056155,238.9920502,-0.009188898839,
238.0070496,0.2062636167,238.0070496,0.100599274,238.0070496,0.320327282,238.0070496,0.4300335646,238.0070496,-0.02561001666,238.0070496,10,
236.9825287,0.008264841512,236.9825287,0.07624418288,236.9825287,-0.04620156437,236.9825287,-0.09434196353,236.9825287,-0.2060816288,236.9825287,0.4839393795,
235.9973755,0.14527978,235.9973755,0.2548689246,235.9973755,-0.07912500203,235.9973755,0.2403649837,235.9973755,0.476718694,235.9973755,0.8739053607,
235.012085,10,235.012085,10,235.012085,10,235.012085,10,235.012085,10,235.012085,10,
233.9873199,10,233.9873199,-1.160731196,233.9873199,-0.9359158874,233.9873199,-0.03195696697,233.9873199,10,233.9873199,10,
233.0018921,10,233.0018921,-0.6879313588,233.0018921,0.5636941195,233.0018921,-0.3292980492,233.0018921,0.2841494381,233.0018921,-0.8768590093,
232.0163574,10,232.0163574,10,232.0163574,10,232.0163574,-0.877266407,232.0163574,10,232.0163574,-0.1933171302,
230.9913025,0.5535258651,230.9913025,10,230.9913025,-0.5126911998,230.9913025,-0.1261190176,230.9913025,0.2218108177,230.9913025,10,
230.0056305,-0.3052472472,230.0056305,-0.1530217379,230.0056305,0.1256844848,230.0056305,10,230.0056305,10,230.0056305,10,
228.9803772,0.04468648136,228.9803772,-0.4182981253,228.9803772,0.06928361952,228.9803772,-0.2384860665,228.9803772,-0.02696824819,228.9803772,-0.2621730566,
227.9944916,-0.1512087882,227.9944916,0.6328217387,227.9944916,-0.085015513,227.9944916,0.1575742513,227.9944916,0.6157870889,227.9944916,0.3035509586,
227.0085144,-0.00262609683,227.0085144,0.08134156466,227.0085144,10,227.0085144,0.02891128883,227.0085144,-0.3370316923,227.0085144,0.2931732535,
225.9830322,-0.1425240189,225.9830322,-0.1194446757,225.9830322,-0.185285002,225.9830322,-0.2393276244,225.9830322,-0.1300858557,225.9830322,-0.1188241839,
224.9968872,-0.3415789902,224.9968872,0.04387894273,224.9968872,10,224.9968872,-0.2564382553,224.9968872,-0.4197615981,224.9968872,10,
224.0106354,3.954499722,224.0106354,3.734735966,224.0106354,4.166503906,224.0106354,4.147660732,224.0106354,4.189068794,224.0106354,10,
222.9848633,0.2002695799,222.9848633,0.5933683515,222.9848633,10,222.9848633,-0.1180718541,222.9848633,-0.1749518216,222.9848633,10,
221.9984589,10,221.9984589,0.08369320631,221.9984589,0.4094550014,221.9984589,-0.288995266,221.9984589,-0.455296725,221.9984589,-0.4095172584,
221.0119781,-0.1561074555,221.0119781,0.02104051039,221.0119781,0.09400311857,221.0119781,-0.2129232883,221.0119781,10,221.0119781,-0.1261837631,
219.9859314,0.8231501579,219.9859314,0.1199372113,219.9859314,0.4972849786,219.9859314,-0.05791576579,219.9859314,0.7921280861,219.9859314,0.5013706684,
218.9992828,-0.8213819265,218.9992828,-0.8449347019,218.9992828,10,218.9992828,-1.066850781,218.9992828,-0.9862508178,218.9992828,-0.8310311437,
218.0125427,0.1279054731,218.0125427,10,218.0125427,0.0757656619,218.0125427,0.2945823669,218.0125427,-0.1099137291,218.0125427,-0.3066396415,
216.9862366,-0.3969528675,216.9862366,-0.3258044124,216.9862366,-0.3322634399,216.9862366,-0.441819638,216.9862366,-0.6703492999,216.9862366,-0.6661292315,
215.9993439,0.05093736202,215.9993439,10,215.9993439,10,215.9993439,0.3755544722,215.9993439,-0.2632401586,215.9993439,0.2575097084,
215.0123444,0.6285764575,215.0123444,-0.3705607057,215.0123444,-0.02829478867,215.0123444,-0.4680686295,215.0123444,10,215.0123444,10,
213.9857941,0.6838760972,213.9857941,0.1125373989,213.9857941,10,213.9857941,0.1286979616,213.9857941,-0.5248739123,213.9857941,0.0824669674,
212.998642,-0.1312865615,212.998642,0.3689832091,212.998642,10,212.998642,0.2825918496,212.998642,10,212.998642,0.02214628085,
212.0114136,-0.1574003249,212.0114136,10,212.0114136,0.6018315554,212.0114136,0.4579711556,212.0114136,0.6277012825,212.0114136,10,
210.9845886,-0.4911882877,210.9845886,-0.2587801814,210.9845886,0.2376040369,210.9845886,10,210.9845886,0.1353435367,210.9845886,10,
209.9971924,-0.01200746652,209.9971924,10,209.9971924,0.3345901966,209.9971924,0.1028749496,209.9971924,10,209.9971924,-0.02394489385,
209.0097046,-0.1396786273,209.0097046,10,209.0097046,-0.2781490088,209.0097046,10,209.0097046,-0.1201556101,209.0097046,10,
207.9826508,-0.1152730286,207.9826508,10,207.9826508,10,207.9826508,10,207.9826508,10,207.9826508,0.01511106268,
206.9950104,0.3287240565,206.9950104,-0.1255409122,206.9950104,0.07971123606,206.9950104,10,206.9950104,10,206.9950104,-0.2421959788,
206.0072937,-0.1029197201,206.0072937,0.3132780194,206.0072937,0.05906198546,206.0072937,-0.2104197294,206.0072937,-0.05468242243,206.0072937,0.1270502508,
205.0195007,-0.6841892004,205.0195007,-0.2571074069,205.0195007,-0.7202377319,205.0195007,10,205.0195007,-0.735427022,205.0195007,-0.73833251,
203.9921265,-0.002914381912,203.9921265,10,203.9921265,-0.4777691662,203.9921265,-1.055169702,203.9921265,-0.9005776048,203.9921265,-0.5590002537,
203.0041504,-0.3110390007,203.0041504,-0.04449972883,203.0041504,-0.1072381884,203.0041504,-0.2888227403,203.0041504,-0.1829257011,203.0041504,0.07335170358,
202.0161285,-0.2730785906,202.0161285,10,202.0161285,-0.5036467314,202.0161285,-0.3861249685,202.0161285,-0.6612151265,202.0161285,-0.3747361898,
200.9884949,-0.01088151615,200.9884949,0.2628743947,200.9884949,-0.2846725285,200.9884949,0.7079324722,200.9884949,-0.409814924,200.9884949,-0.2191890627,
200.0003052,0.04284802079,200.0003052,0.8253262043,200.0003052,0.05585347861,200.0003052,10,200.0003052,-0.3132526875,200.0003052,-0.1436176151,

blank,
blank
Collection Time: 19/02/2021 13:02:00
Operator Name  :
Scan Version 5.0.0.999
Parameter List :
Instrument  Cary 60
Instrument Version  2.00
Start (nm)  800.0
Stop (nm)  200.0
X Mode  Nanometers
Y Mode  Abs
UV-Vis Scan Rate (nm/min)  4800.000
UV-Vis Data Interval (nm)  1.00
UV-Vis Ave. Time (sec)  0.0125
Beam Mode  Dual Beam
Baseline Correction  On
Baseline Type  Baseline correction
Baseline File Name
Baseline Std Ref File Name
Cycle Mode  Off
Method Log     :
Method Name    :
Date/Time stamp: 19/02/2021 13:00:59
Method Modifications:
Common Interval nm Changed: 19/02/2021 13:01:27, Old:     5.00, New:     1.00
Baseline Correction Changed: 19/02/2021 13:01:41, Old:0, New:1
Storage Changed: 19/02/2021 13:01:41, Old:1, New:0
End Method Modifications
<Current Wavelength> , 200.0

wt,
wt
Collection Time: 19/02/2021 13:04:03
Operator Name  :
Scan Version 5.0.0.999
Parameter List :
Instrument  Cary 60
Instrument Version  2.00
Start (nm)  800.0
Stop (nm)  200.0
X Mode  Nanometers
Y Mode  Abs
UV-Vis Scan Rate (nm/min)  4800.000
UV-Vis Data Interval (nm)  1.00
UV-Vis Ave. Time (sec)  0.0125
Beam Mode  Dual Beam
Baseline Correction  On
Baseline Type  Baseline correction
Baseline File Name
Baseline Std Ref File Name
Cycle Mode  Off
Method Log     :
Method Name    :
Date/Time stamp: 19/02/2021 13:00:59
Method Modifications:
Common Interval nm Changed: 19/02/2021 13:01:27, Old:     5.00, New:     1.00
Baseline Correction Changed: 19/02/2021 13:01:41, Old:0, New:1
Storage Changed: 19/02/2021 13:01:41, Old:1, New:0
End Method Modifications
<Current Wavelength> , 266.0

a82f,
a82f
Collection Time: 19/02/2021 13:04:26
Operator Name  :
Scan Version 5.0.0.999
Parameter List :
Instrument  Cary 60
Instrument Version  2.00
Start (nm)  800.0
Stop (nm)  200.0
X Mode  Nanometers
Y Mode  Abs
UV-Vis Scan Rate (nm/min)  4800.000
UV-Vis Data Interval (nm)  1.00
UV-Vis Ave. Time (sec)  0.0125
Beam Mode  Dual Beam
Baseline Correction  On
Baseline Type  Baseline correction
Baseline File Name
Baseline Std Ref File Name
Cycle Mode  Off
Method Log     :
Method Name    :
Date/Time stamp: 19/02/2021 13:00:59
Method Modifications:
Common Interval nm Changed: 19/02/2021 13:01:27, Old:     5.00, New:     1.00
Baseline Correction Changed: 19/02/2021 13:01:41, Old:0, New:1
Storage Changed: 19/02/2021 13:01:41, Old:1, New:0
End Method Modifications
<Current Wavelength> , 243.0

dm,
dm
Collection Time: 19/02/2021 13:04:45
Operator Name  :
Scan Version 5.0.0.999
Parameter List :
Instrument  Cary 60
Instrument Version  2.00
Start (nm)  800.0
Stop (nm)  200.0
X Mode  Nanometers
Y Mode  Abs
UV-Vis Scan Rate (nm/min)  4800.000
UV-Vis Data Interval (nm)  1.00
UV-Vis Ave. Time (sec)  0.0125
Beam Mode  Dual Beam
Baseline Correction  On
Baseline Type  Baseline correction
Baseline File Name
Baseline Std Ref File Name
Cycle Mode  Off
Method Log     :
Method Name    :
Date/Time stamp: 19/02/2021 13:00:59
Method Modifications:
Common Interval nm Changed: 19/02/2021 13:01:27, Old:     5.00, New:     1.00
Baseline Correction Changed: 19/02/2021 13:01:41, Old:0, New:1
Storage Changed: 19/02/2021 13:01:41, Old:1, New:0
End Method Modifications
<Current Wavelength> , 216.0

1yqp,
1yqp
Collection Time: 19/02/2021 13:05:03
Operator Name  :
Scan Version 5.0.0.999
Parameter List :
Instrument  Cary 60
Instrument Version  2.00
Start (nm)  800.0
Stop (nm)  200.0
X Mode  Nanometers
Y Mode  Abs
UV-Vis Scan Rate (nm/min)  4800.000
UV-Vis Data Interval (nm)  1.00
UV-Vis Ave. Time (sec)  0.0125
Beam Mode  Dual Beam
Baseline Correction  On
Baseline Type  Baseline correction
Baseline File Name
Baseline Std Ref File Name
Cycle Mode  Off
Method Log     :
Method Name    :
Date/Time stamp: 19/02/2021 13:00:59
Method Modifications:
Common Interval nm Changed: 19/02/2021 13:01:27, Old:     5.00, New:     1.00
Baseline Correction Changed: 19/02/2021 13:01:41, Old:0, New:1
Storage Changed: 19/02/2021 13:01:41, Old:1, New:0
End Method Modifications
<Current Wavelength> , 241.0

1yqo,
1yqo
Collection Time: 19/02/2021 13:05:22
Operator Name  :
Scan Version 5.0.0.999
Parameter List :
Instrument  Cary 60
Instrument Version  2.00
Start (nm)  800.0
Stop (nm)  200.0
X Mode  Nanometers
Y Mode  Abs
UV-Vis Scan Rate (nm/min)  4800.000
UV-Vis Data Interval (nm)  1.00
UV-Vis Ave. Time (sec)  0.0125
Beam Mode  Dual Beam
Baseline Correction  On
Baseline Type  Baseline correction
Baseline File Name
Baseline Std Ref File Name
Cycle Mode  Off
Method Log     :
Method Name    :
Date/Time stamp: 19/02/2021 13:00:59
Method Modifications:
Common Interval nm Changed: 19/02/2021 13:01:27, Old:     5.00, New:     1.00
Baseline Correction Changed: 19/02/2021 13:01:41, Old:0, New:1
Storage Changed: 19/02/2021 13:01:41, Old:1, New:0
End Method Modifications
<Current Wavelength> , 248.0

