blank,,bm3-1yqp-heme-10in1000-tube78,,bm3-1yqp-heme-10in1000-tube79,,bm3-1yqp-heme-10in1000-tube80,,bm3-1yqp-heme-10in1000-tube81,,bm3-1yqp-heme-10in1000-pooled,,
Wavelength (nm),Abs,Wavelength (nm),Abs,Wavelength (nm),Abs,Wavelength (nm),Abs,Wavelength (nm),Abs,Wavelength (nm),Abs,
799.9969482,-0.0003046227503,799.9969482,0.004991589114,799.9969482,0.09714058042,799.9969482,0.09920297563,799.9969482,0.005560494959,799.9969482,0.004916496575,
798.9923096,0.00142881996,798.9923096,0.002017026069,798.9923096,0.09686671197,798.9923096,0.09436341375,798.9923096,0.006083154585,798.9923096,0.006117046345,
797.9871826,0.0007758997963,797.9871826,0.001692040707,797.9871826,0.0985937193,797.9871826,0.09673586488,797.9871826,0.008359752595,797.9871826,0.001730191289,
797.0163574,-0.0003668045392,797.0163574,0.00254012295,797.0163574,0.09725610912,797.0163574,0.09898099303,797.0163574,0.003980551381,797.0163574,0.00280539901,
796.010437,0.0008375710458,796.010437,0.002486462239,796.010437,0.09782419354,796.010437,0.100178957,796.010437,0.001798912417,796.010437,0.004346838221,
795.0041504,-0.0002764259116,795.0041504,0.0004580089008,795.0041504,0.0942581445,795.0041504,0.1006904244,795.0041504,0.006660589948,795.0041504,0.00641315151,
793.9974365,0.0001885425445,793.9974365,-0.001463711844,793.9974365,0.09765995294,793.9974365,0.0936525315,793.9974365,0.002896648832,793.9974365,0.0008942966815,
792.9903564,-0.0004880902998,792.9903564,1.612725828E-005,792.9903564,0.0930101797,792.9903564,0.09785279632,792.9903564,0.00470095221,792.9903564,0.005489393137,
791.9828491,-0.0007123667747,791.9828491,0.0006464393227,791.9828491,0.09393113106,791.9828491,0.09393598139,791.9828491,0.005691349972,791.9828491,0.002148144413,
791.0097046,-0.001110071782,791.0097046,0.0003057432186,791.0097046,0.0992731452,791.0097046,0.09269499779,791.0097046,0.003908297513,791.0097046,0.003110960359,
790.0013428,-0.0001100014342,790.0013428,0.000301080494,790.0013428,0.09830860794,790.0013428,0.093400307,790.0013428,0.006844841875,790.0013428,0.005807972979,
788.9926758,-0.0001445749513,788.9926758,0.004010804463,788.9926758,0.09824362397,788.9926758,0.09720724821,788.9926758,0.005152291153,788.9926758,0.001378101064,
787.9835815,-0.0001430223056,787.9835815,0.002036635298,787.9835815,0.09990564734,787.9835815,0.09520965815,787.9835815,0.007562558632,787.9835815,0.001593119348,
787.0089111,0.0005274101859,787.0089111,0.002625587396,787.0089111,0.09601931274,787.0089111,0.09893102199,787.0089111,0.00673083216,787.0089111,0.005209976342,
785.9989624,-0.0007582624676,785.9989624,0.005095556844,785.9989624,0.1009785384,785.9989624,0.09599418938,785.9989624,0.001541913603,785.9989624,0.00320615992,
784.9887695,-0.0006161664496,784.9887695,0.003807851812,784.9887695,0.09552744031,784.9887695,0.09445887059,784.9887695,0.00554119749,784.9887695,0.006994367111,
784.0128784,-0.0002517457178,784.0128784,0.0003992674465,784.0128784,0.09766546637,784.0128784,0.1002867222,784.0128784,0.003515187185,784.0128784,0.002861105604,
783.001709,4.799523595E-005,783.001709,0.00121959392,783.001709,0.09979005903,783.001709,0.102067776,783.001709,0.007841042243,783.001709,0.002480552532,
781.9902954,0.0007306244224,781.9902954,0.003314239671,781.9902954,0.09963937104,781.9902954,0.09441215545,781.9902954,0.005209033377,781.9902954,0.001749735675,
781.0134277,-0.0003572864516,781.0134277,0.004242788069,781.0134277,0.1022450253,781.0134277,0.09945563972,781.0134277,0.00686574867,781.0134277,0.005344682839,
780.0010986,0.001119300839,780.0010986,0.001850070548,780.0010986,0.09835321456,780.0010986,0.09547451138,780.0010986,0.006955119781,780.0010986,0.00454575289,
778.9884644,0.001056551584,778.9884644,0.00557769509,778.9884644,0.1054941043,778.9884644,0.09960697591,778.9884644,0.003473382909,778.9884644,0.003619402414,
778.010376,0.001340111136,778.010376,0.00123732409,778.010376,0.1040233299,778.010376,0.09614432603,778.010376,0.002169996966,778.010376,0.003311005188,
776.9969482,0.0002697896853,776.9969482,0.001399473404,776.9969482,0.1018401012,776.9969482,0.09848935902,776.9969482,0.003239775542,776.9969482,0.00683884602,
775.9831543,0.000890431751,775.9831543,0.004885159433,775.9831543,0.09705466777,775.9831543,0.0974727124,775.9831543,0.003623187309,775.9831543,0.001870036242,
775.0039063,9.446817421E-005,775.0039063,0.00375594059,775.0039063,0.09948818386,775.0039063,0.1003879905,775.0039063,0.008236190304,775.0039063,0.006004145835,
773.9893188,-0.001767361653,773.9893188,0.002002852736,773.9893188,0.09718004614,773.9893188,0.09455811232,773.9893188,0.004555824213,773.9893188,0.005096551962,
773.0093384,-0.001888411585,773.0093384,0.001355431392,773.0093384,0.1015717313,773.0093384,0.09954684228,773.0093384,0.002167551545,773.0093384,0.003351907013,
771.9940186,0.0003715966886,771.9940186,0.002973113209,771.9940186,0.10297741,771.9940186,0.09880124032,771.9940186,0.004686690867,771.9940186,0.00635144487,
771.0132446,0.0006111315452,771.0132446,0.002001292305,771.0132446,0.09690214694,771.0132446,0.0990338251,771.0132446,0.006444493774,771.0132446,0.005593322683,
769.9971313,-0.0001694682578,769.9971313,-0.0002024328569,769.9971313,0.09643735737,769.9971313,0.09940183908,769.9971313,0.002982783131,769.9971313,0.005279433914,
769.015686,0.0004214467772,769.015686,0.005576672498,769.015686,0.09862649441,769.015686,0.09945778549,769.015686,0.002087327186,769.015686,0.004858510103,
767.9988403,-0.0001803877385,767.9988403,0.002983564977,767.9988403,0.1026027501,767.9988403,0.101303488,767.9988403,0.004499638453,767.9988403,0.006987132598,
767.0166626,0.0002939569822,767.0166626,0.004436764866,767.0166626,0.1009941548,767.0166626,0.1027480811,767.0166626,0.003488152288,767.0166626,0.005188965704,
765.9989624,0.0008811715525,765.9989624,0.004872855265,765.9989624,0.1002963781,765.9989624,0.09720747173,765.9989624,0.003554907627,765.9989624,0.007842518389,
765.0160522,0.0006686831475,765.0160522,0.003841801314,765.0160522,0.0982401222,765.0160522,0.102345638,765.0160522,0.006606076378,765.0160522,0.007675522007,
763.9975586,5.723764843E-005,763.9975586,0.001960231457,763.9975586,0.09944476932,763.9975586,0.09772215784,763.9975586,0.004331516568,763.9975586,0.003151921555,
763.0139771,0.0001136801657,763.0139771,0.004842176102,763.0139771,0.1012723073,763.0139771,0.09884030372,763.0139771,0.00567742344,763.0139771,0.008483165875,
761.994751,0.0002788036945,761.994751,0.003196980804,761.994751,0.09958620369,761.994751,0.097977072,761.994751,0.003455195809,761.994751,0.01047682203,
761.010376,-0.0006445997278,761.010376,0.002677520271,761.010376,0.09907915443,761.010376,0.09690819681,761.010376,0.003635377623,761.010376,0.005007824395,
759.9904785,-9.763089474E-005,759.9904785,0.00308530638,759.9904785,0.1014734209,759.9904785,0.09986224771,759.9904785,0.006867957767,759.9904785,0.008414671756,
759.0053101,-0.001586909872,759.0053101,0.004023606423,759.0053101,0.09858894348,759.0053101,0.1012359262,759.0053101,0.003041562159,759.0053101,0.004521975759,
757.9846191,-0.000192755906,757.9846191,0.003323630197,757.9846191,0.09887491912,757.9846191,0.09850462526,757.9846191,0.004534819163,757.9846191,0.005000780337,
756.9987793,0.000482471718,756.9987793,0.002038377803,756.9987793,0.1014351994,756.9987793,0.1019261479,756.9987793,0.005841396749,756.9987793,0.008030278608,
756.0124512,-0.0007227557362,756.0124512,0.003291520989,756.0124512,0.1007220596,756.0124512,0.09784776717,756.0124512,0.004676616751,756.0124512,0.005986377597,
754.9906616,0.0004569982702,754.9906616,0.0038303365,754.9906616,0.1008273736,754.9906616,0.1004749909,754.9906616,0.003918798175,754.9906616,0.006168715656,
754.0037231,0.0004395331198,754.0037231,0.004773311783,754.0037231,0.09990949184,754.0037231,0.1025539711,754.0037231,0.006491814274,754.0037231,0.006639141124,
753.0164185,0.0001018473413,753.0164185,0.00535521796,753.0164185,0.1029654965,753.0164185,0.1024050415,753.0164185,0.006655411795,753.0164185,0.009117595851,
751.9934692,-0.001577469986,751.9934692,0.003845170373,751.9934692,0.1013178006,751.9934692,0.09845490754,751.9934692,0.003951606806,751.9934692,0.005593165755,
751.0054321,0.001333619701,751.0054321,0.005729617551,751.0054321,0.09968730807,751.0054321,0.0985236913,751.0054321,0.005875872914,751.0054321,0.01032323018,
750.0170288,0.0007408148376,750.0170288,0.003391142935,750.0170288,0.1037530378,750.0170288,0.1009087488,750.0170288,0.007860125974,750.0170288,0.009416442364,
748.992981,-0.0007462721551,748.992981,0.005008897744,748.992981,0.09890957177,748.992981,0.1003231853,748.992981,0.006837294437,748.992981,0.008588764817,
748.0039063,-6.377834507E-005,748.0039063,0.005016937386,748.0039063,0.1022814885,748.0039063,0.09982521087,748.0039063,0.004033691715,748.0039063,0.008047814481,
747.0144043,-0.001050475403,747.0144043,0.001591248787,747.0144043,0.1021036655,747.0144043,0.09988196194,747.0144043,0.006678675301,747.0144043,0.007774468511,
745.9891968,-5.855011477E-005,745.9891968,0.006654071156,745.9891968,0.1038524881,745.9891968,0.1029663831,745.9891968,0.007595195901,745.9891968,0.008338510059,
744.9990845,0.0009962501936,744.9990845,0.004495453555,744.9990845,0.1039660648,744.9990845,0.1002942547,744.9990845,0.008143838495,744.9990845,0.00902672112,
744.0085449,0.0003886445775,744.0085449,0.005658199545,744.0085449,0.101388514,744.0085449,0.09974527359,744.0085449,0.005158761516,744.0085449,0.01030626521,
743.0176392,0.0002085356537,743.0176392,0.004570473451,743.0176392,0.1048960313,743.0176392,0.1047976017,743.0176392,0.007817901671,743.0176392,0.01013757754,
741.9910278,-0.001456384896,741.9910278,0.004183349665,741.9910278,0.1025728211,741.9910278,0.09801431,741.9910278,0.005016701296,741.9910278,0.005331187043,
740.9993896,0.000855700695,740.9993896,0.004163852427,740.9993896,0.103693448,740.9993896,0.1029116884,740.9993896,0.007345355116,740.9993896,0.008659636602,
740.0074463,0.00108626415,740.0074463,0.004108109046,740.0074463,0.104334034,740.0074463,0.1030122563,740.0074463,0.007216080092,740.0074463,0.01041331608,
739.0151367,0.0007269165362,739.0151367,0.004717202391,739.0151367,0.1036846042,739.0151367,0.1023361981,739.0151367,0.005306030158,739.0151367,0.01065108087,
737.9871216,4.294694372E-005,737.9871216,0.00601771567,737.9871216,0.1019952893,737.9871216,0.09992285073,737.9871216,0.00584674906,737.9871216,0.00971009396,
736.9940796,-0.0008948871982,736.9940796,0.001973337261,736.9940796,0.101280801,736.9940796,0.09781491756,736.9940796,0.005111534148,736.9940796,0.009337882511,
736.0006714,-0.0002138172276,736.0006714,0.003425581614,736.0006714,0.1033472344,736.0006714,0.1003380194,736.0006714,0.00688513089,736.0006714,0.008426812477,
735.007019,-0.0001796632278,735.007019,0.00549306348,735.007019,0.1039293632,735.007019,0.1008865088,735.007019,0.006711114664,735.007019,0.008949949406,
734.0129395,0.0005503477296,734.0129395,0.003453552024,734.0129395,0.1013709232,734.0129395,0.101046741,734.0129395,0.006173992995,734.0129395,0.009662343189,
732.9830322,0.0003194726596,732.9830322,0.003912973218,732.9830322,0.1054992229,732.9830322,0.1030055955,732.9830322,0.005323010962,732.9830322,0.007487810217,
731.9882202,-4.379684833E-005,731.9882202,0.00484395586,731.9882202,0.105368346,731.9882202,0.1027071849,731.9882202,0.006556036882,731.9882202,0.00895150844,
730.993103,-0.000495692133,730.993103,0.00476844376,730.993103,0.1040755585,730.993103,0.1016355082,730.993103,0.005523317028,730.993103,0.008887221105,
729.9976807,-0.0003003804304,729.9976807,0.006299517583,729.9976807,0.103304252,729.9976807,0.1014735177,729.9976807,0.006921084132,729.9976807,0.006730122026,
729.0018921,0.0001568196167,729.0018921,0.004346237052,729.0018921,0.1030183658,729.0018921,0.1031632349,729.0018921,0.006303168368,729.0018921,0.009426891804,
728.0057373,0.0006543723284,728.0057373,0.005560757127,728.0057373,0.1049789339,728.0057373,0.1032865867,728.0057373,0.007460052613,728.0057373,0.009642359801,
727.0092773,0.0003683063842,727.0092773,0.00622107368,727.0092773,0.1049907655,727.0092773,0.1017403975,727.0092773,0.006056799553,727.0092773,0.008266609162,
726.0124512,8.488838648E-005,726.0124512,0.005642963108,726.0124512,0.1029296368,726.0124512,0.1030701473,726.0124512,0.007901326753,726.0124512,0.008943687193,
725.0152588,0.0002227282093,725.0152588,0.005958007649,725.0152588,0.1045772508,725.0152588,0.103872247,725.0152588,0.007854353637,725.0152588,0.007646830752,
724.0177612,5.552895163E-005,724.0177612,0.003851620946,724.0177612,0.1017164141,724.0177612,0.104627341,724.0177612,0.006054646801,724.0177612,0.008043700829,
722.9842529,0.0003044739133,722.9842529,0.007773888763,722.9842529,0.1039796472,722.9842529,0.1047211289,722.9842529,0.008797451854,722.9842529,0.008535565808,
721.9860229,-9.54569623E-005,721.9860229,0.006278165616,721.9860229,0.1051690802,721.9860229,0.1046131477,721.9860229,0.005466586445,721.9860229,0.008179051802,
720.9874878,-0.0004314600083,720.9874878,0.005906625651,720.9874878,0.1062551364,720.9874878,0.1026446521,720.9874878,0.009366368875,720.9874878,0.007914244197,
719.9885254,0.0009518857696,719.9885254,0.005863829516,719.9885254,0.1068523675,719.9885254,0.1060418114,719.9885254,0.007085738238,719.9885254,0.008411452174,
718.9894409,-0.000581682194,718.9894409,0.004444872029,718.9894409,0.1046936885,718.9894409,0.1035421565,718.9894409,0.006840081885,718.9894409,0.006691398565,
717.9898071,-9.897666314E-005,717.9898071,0.006018844433,717.9898071,0.1044438556,717.9898071,0.106184721,717.9898071,0.007914454676,717.9898071,0.008088425733,
716.9898682,0.0002185584453,716.9898682,0.005140844267,716.9898682,0.1044126078,716.9898682,0.1028440446,716.9898682,0.006634646561,716.9898682,0.007283358369,
715.989624,-0.0001443161746,715.989624,0.00544178905,715.989624,0.1043064892,715.989624,0.1046544164,715.989624,0.007777525578,715.989624,0.008451174013,
714.9890137,0.0003770633484,714.9890137,0.006600110326,714.9890137,0.1070973277,714.9890137,0.1025377437,714.9890137,0.008506791666,714.9890137,0.008347561583,
713.9880981,0.0005606894265,713.9880981,0.006724443752,713.9880981,0.107459344,713.9880981,0.1049578041,713.9880981,0.008183562197,713.9880981,0.008572475053,
712.9868164,-2.78524094E-005,712.9868164,0.005553677678,712.9868164,0.107732676,712.9868164,0.1057774648,712.9868164,0.006551043596,712.9868164,0.006920873653,
711.9852905,-2.99749172E-005,711.9852905,0.006381916348,711.9852905,0.1055346653,711.9852905,0.1056267321,711.9852905,0.007558765821,711.9852905,0.007523760665,
710.9832764,0.0001364922646,710.9832764,0.004649797454,710.9832764,0.1063728854,710.9832764,0.1064145565,710.9832764,0.007504718378,710.9832764,0.007797870785,
710.0167847,-0.000105498395,710.0167847,0.00681875553,710.0167847,0.1077444553,710.0167847,0.1050514579,710.0167847,0.009213777259,710.0167847,0.00691782264,
709.0142212,0.0006113648415,709.0142212,0.004370579962,709.0142212,0.1050284803,709.0142212,0.1063942835,709.0142212,0.007645697799,709.0142212,0.008695525117,
708.0112915,0.0001859787299,708.0112915,0.00601217756,708.0112915,0.1069222987,708.0112915,0.1066972911,708.0112915,0.008377671242,708.0112915,0.0088014137,
707.0079956,1.783579864E-005,707.0079956,0.004305424634,707.0079956,0.1086513698,707.0079956,0.1038891822,707.0079956,0.009924775921,707.0079956,0.009365496226,
706.0043945,-9.141962073E-005,706.0043945,0.006737667602,706.0043945,0.1060682461,706.0043945,0.1060740948,706.0043945,0.0064101303,706.0043945,0.007957189344,
705.0004272,-0.0004889694392,705.0004272,0.00749952998,705.0004272,0.1079303026,705.0004272,0.1066038385,705.0004272,0.008692197502,705.0004272,0.008320013061,
703.9962158,0.0001572857291,703.9962158,0.00567952171,703.9962158,0.1059485376,703.9962158,0.1069096178,703.9962158,0.007948779501,703.9962158,0.01024718396,
702.9915771,0.000449561252,702.9915771,0.0061553251,702.9915771,0.1095291078,702.9915771,0.1040392146,702.9915771,0.009336719289,702.9915771,0.008942683227,
701.9866943,-0.0001607738668,701.9866943,0.00566514954,701.9866943,0.1051838174,701.9866943,0.1057511792,701.9866943,0.007618457079,701.9866943,0.007721448317,
701.0172729,-0.0008744272636,701.0172729,0.006774818059,701.0172729,0.1054165214,701.0172729,0.1057369485,701.0172729,0.009275309741,701.0172729,0.007263010368,
700.0117188,0.0002161498414,700.0117188,0.00692095235,700.0117188,0.1092590988,700.0117188,0.1067653373,700.0117188,0.008375613019,700.0117188,0.008867776021,
699.0057373,0.0005528359325,699.0057373,0.00621849997,699.0057373,0.106904611,699.0057373,0.1067401543,699.0057373,0.009562515654,699.0057373,0.009839849547,
697.9995728,0.0004320704611,697.9995728,0.007500372827,697.9995728,0.1081946045,697.9995728,0.1078367904,697.9995728,0.007172786165,697.9995728,0.0100181438,
696.992981,0.0005124042509,696.992981,0.005525833927,696.992981,0.1076313406,696.992981,0.1078178436,696.992981,0.007485624403,696.992981,0.01044410001,
695.9860229,-0.0006697745412,695.9860229,0.006587284617,695.9860229,0.1051533148,695.9860229,0.1050038189,695.9860229,0.008566903882,695.9860229,0.009905258194,
695.0147705,-1.092374168E-005,695.0147705,0.008395248093,695.0147705,0.1091853306,695.0147705,0.1043915078,695.0147705,0.007782849018,695.0147705,0.008163462393,
694.0072632,-0.001128042117,694.0072632,0.00792531576,694.0072632,0.1066438481,694.0072632,0.1065227166,694.0072632,0.008896680549,694.0072632,0.008859823458,
692.9993286,0.000109226632,692.9993286,0.007461659145,692.9993286,0.1085024923,692.9993286,0.1065178886,692.9993286,0.006320529617,692.9993286,0.006872585975,
691.9911499,-0.0001530108857,691.9911499,0.005829039495,691.9911499,0.104620032,691.9911499,0.1076389998,691.9911499,0.01000111084,691.9911499,0.01040886156,
690.982605,0.0001321679738,690.982605,0.008421085775,690.982605,0.1098930836,690.982605,0.1071341634,690.982605,0.01108275726,690.982605,0.01011248492,
690.0097656,-0.0001861837372,690.0097656,0.009417235851,690.0097656,0.1084851474,690.0097656,0.1083761975,690.0097656,0.01025807764,690.0097656,0.009684735909,
689.0006104,0.00165275007,689.0006104,0.008037107997,689.0006104,0.1088182852,689.0006104,0.1051697358,689.0006104,0.01009014994,689.0006104,0.008920011111,
687.9911499,-0.0005208238726,687.9911499,0.0045435559,687.9911499,0.1068634614,687.9911499,0.1088982448,687.9911499,0.008019230329,687.9911499,0.008402109146,
687.017334,0.0007213417557,687.017334,0.006427233107,687.017334,0.1083433405,687.017334,0.1072975844,687.017334,0.008061105385,687.017334,0.007805645932,
686.0071411,-0.0001669841586,686.0071411,0.006855729036,686.0071411,0.1045453027,686.0071411,0.1075544655,686.0071411,0.01024893299,686.0071411,0.007946459576,
684.9967041,0.0008776957984,684.9967041,0.008415041491,684.9967041,0.1069242805,684.9967041,0.1094020382,684.9967041,0.01142423041,684.9967041,0.007152575068,
683.9859619,-0.0006802162388,683.9859619,0.004768051207,683.9859619,0.109826915,683.9859619,0.1085263565,683.9859619,0.007778974716,683.9859619,0.008927541785,
683.0109253,-2.805948316E-005,683.0109253,0.007724952884,683.0109253,0.1090800315,683.0109253,0.1080299839,683.0109253,0.008274498396,683.0109253,0.01151528955,
681.9994507,0.0002009733871,681.9994507,0.006313700695,681.9994507,0.1095558852,681.9994507,0.106903851,681.9994507,0.008523396216,681.9994507,0.01042662654,
680.9877319,0.0008698106394,680.9877319,0.009954916313,680.9877319,0.1103250459,680.9877319,0.1087448299,680.9877319,0.01191307791,680.9877319,0.01147260144,
680.0118408,0.0002351600124,680.0118408,0.009972291999,680.0118408,0.108620584,680.0118408,0.1072043404,680.0118408,0.0104587106,680.0118408,0.01177357882,
678.9994507,0.0002675362048,678.9994507,0.01006005332,678.9994507,0.1105552092,678.9994507,0.108561717,678.9994507,0.009623912163,678.9994507,0.009570957161,
677.9866943,-0.0001985517592,677.9866943,0.007550125942,677.9866943,0.1118415669,677.9866943,0.1069091856,677.9866943,0.008475379087,677.9866943,0.009071072564,
677.0098877,-0.00123466074,677.0098877,0.008447083645,677.0098877,0.1085529774,677.0098877,0.1075065881,677.0098877,0.007121207658,677.0098877,0.01169512328,
675.996582,-0.001315394649,675.996582,0.005534590688,675.996582,0.1091585755,675.996582,0.1076381728,675.996582,0.009161189198,675.996582,0.008929391392,
674.9829102,0.0003334356879,674.9829102,0.007748695556,674.9829102,0.1114678532,674.9829102,0.1079976484,674.9829102,0.01496710349,674.9829102,0.01005933806,
674.005127,0.0004522561794,674.005127,0.008125982247,674.005127,0.1114243567,674.005127,0.1097486466,674.005127,0.01117374469,674.005127,0.01350849867,
672.9909058,0.001025595469,672.9909058,0.009519490413,672.9909058,0.1145494655,672.9909058,0.1118727848,672.9909058,0.01094726846,672.9909058,0.01490146387,
672.0125122,0.000682709273,672.0125122,0.00957863126,672.0125122,0.1126293167,672.0125122,0.10931357,672.0125122,0.01294616051,672.0125122,0.0114015881,
670.9976196,0.0002617083082,670.9976196,0.008702629246,670.9976196,0.1126979664,670.9976196,0.1088765264,670.9976196,0.01166784111,670.9976196,0.01186138578,
669.9823608,-0.0001348449587,669.9823608,0.009129201062,669.9823608,0.1139620543,669.9823608,0.109738186,669.9823608,0.01043367945,669.9823608,0.01056293491,
669.0031738,0.0003069348168,669.0031738,0.01025661919,669.0031738,0.1123504043,669.0031738,0.1099237949,669.0031738,0.01435832307,669.0031738,0.01335343067,
667.9873047,0.0008113506483,667.9873047,0.01148150582,667.9873047,0.1124221236,667.9873047,0.1095103174,667.9873047,0.01295309514,667.9873047,0.0138698183,
667.0074463,9.024786414E-005,667.0074463,0.0127266217,667.0074463,0.1145234481,667.0074463,0.1132170707,667.0074463,0.0148689691,667.0074463,0.01505799685,
665.9910278,0.0009085635538,665.9910278,0.01249643043,665.9910278,0.1150607094,665.9910278,0.1116975546,665.9910278,0.01429264247,665.9910278,0.01411576662,
665.010498,0.000511730439,665.010498,0.01205448434,665.010498,0.111805439,665.010498,0.1132032648,665.010498,0.01398793608,665.010498,0.01244791877,
663.9934082,-0.0002295996092,663.9934082,0.01376629341,663.9934082,0.1153194234,663.9934082,0.1118209735,663.9934082,0.01573316567,663.9934082,0.01529451087,
663.0124512,-0.0002382408711,663.0124512,0.01316671818,663.0124512,0.1155436039,663.0124512,0.1111093089,663.0124512,0.01573638618,663.0124512,0.01598360948,
661.994751,0.0001384084462,661.994751,0.01446490642,661.994751,0.1147504598,661.994751,0.1130399257,661.994751,0.01559812296,661.994751,0.01576961763,
661.0130615,0.00015852871,661.0130615,0.01438358147,661.0130615,0.1180126071,661.0130615,0.116125308,661.0130615,0.01559109241,661.0130615,0.0165438205,
659.9946899,0.0001688611082,659.9946899,0.0129816588,659.9946899,0.1190804318,659.9946899,0.1143665537,659.9946899,0.01432378311,659.9946899,0.01664507575,
659.0125122,0.000631481118,659.0125122,0.01476017199,659.0125122,0.1175842062,659.0125122,0.1152285859,659.0125122,0.01673193648,659.0125122,0.01786175929,
657.9935913,-0.0001681744616,657.9935913,0.01342329569,657.9935913,0.1193065643,657.9935913,0.1147285402,657.9935913,0.01676397957,657.9935913,0.01830490492,
657.0107422,0.000348564965,657.0107422,0.0145526696,657.0107422,0.1188913435,657.0107422,0.1183526963,657.0107422,0.01423694752,657.0107422,0.01941365749,
655.991272,-0.0003957196604,655.991272,0.01608000882,655.991272,0.1202563122,655.991272,0.1147468537,655.991272,0.01726676896,655.991272,0.01738926396,
655.0078125,0.0002431631874,655.0078125,0.01480018441,655.0078125,0.1235353276,655.0078125,0.117437087,655.0078125,0.01745220833,655.0078125,0.01816374436,
653.9876709,-3.023375939E-005,653.9876709,0.01777774654,653.9876709,0.1194466427,653.9876709,0.1180620342,653.9876709,0.01899917983,653.9876709,0.01905976236,
653.0036621,-0.0005658608861,653.0036621,0.01564682648,653.0036621,0.1212429777,653.0036621,0.118742764,653.0036621,0.01593387499,653.0036621,0.01970082335,
651.9829102,6.609190314E-005,651.9829102,0.01725788042,651.9829102,0.1195861623,651.9829102,0.1169935912,651.9829102,0.01648124866,651.9829102,0.01943496242,
650.998291,-1.941404298E-005,650.998291,0.01710375771,650.998291,0.1229153126,650.998291,0.1154447496,650.998291,0.01824351214,650.998291,0.02242915332,
650.0134277,0.0004924489767,650.0134277,0.01810860448,650.0134277,0.1221534163,650.0134277,0.1161751002,650.0134277,0.01940637641,650.0134277,0.02104890719,
648.9918213,-0.0002448640007,648.9918213,0.01678778976,648.9918213,0.1231229305,648.9918213,0.1170615107,648.9918213,0.01660959981,648.9918213,0.02196217701,
648.0063477,3.088305675E-005,648.0063477,0.01588911191,648.0063477,0.1225987151,648.0063477,0.1167612076,648.0063477,0.01829931699,648.0063477,0.01886701211,
646.9840698,0.000777300098,646.9840698,0.01583705284,646.9840698,0.1213058829,646.9840698,0.1177834794,646.9840698,0.01798741706,646.9840698,0.02299796417,
645.9981079,0.0002193095133,645.9981079,0.01805379428,645.9981079,0.1224741191,645.9981079,0.1197727844,645.9981079,0.01823557355,645.9981079,0.02148881927,
645.0117188,0.0006339697866,645.0117188,0.01753852889,645.0117188,0.1232821941,645.0117188,0.1222534627,645.0117188,0.01887241937,645.0117188,0.02299275063,
643.9885864,5.94382509E-005,643.9885864,0.01832680404,643.9885864,0.1214394569,643.9885864,0.1154898331,643.9885864,0.01653392427,643.9885864,0.02235785313,
643.001709,-0.0001327747159,643.001709,0.01735720225,643.001709,0.1214060783,643.001709,0.1179742962,643.001709,0.01715368032,643.001709,0.0220591221,
642.0144653,-0.0006706016138,642.0144653,0.01553096622,642.0144653,0.1210179925,642.0144653,0.1178504378,642.0144653,0.01740957983,642.0144653,0.02109529078,
640.9904785,-0.0009687623824,640.9904785,0.01487499662,640.9904785,0.1203005314,640.9904785,0.1148291901,640.9904785,0.01484317333,640.9904785,0.01932980493,
640.0026855,0.0004642021959,640.0026855,0.01695706323,640.0026855,0.1250528842,640.0026855,0.1184558868,640.0026855,0.01828697696,640.0026855,0.02199084871,
639.0146484,0.0004302825546,639.0146484,0.01674928889,639.0146484,0.1226090789,639.0146484,0.1161577776,639.0146484,0.0194398351,639.0146484,0.02234106511,
637.9898071,-0.0001515617769,637.9898071,0.01714673266,637.9898071,0.1234243214,637.9898071,0.1166715324,637.9898071,0.01799661666,637.9898071,0.02095854469,
637.0011597,0.0005358075141,637.0011597,0.01649361663,637.0011597,0.1210562289,637.0011597,0.11854022,637.0011597,0.01814884506,637.0011597,0.02360425331,
636.0122681,0.0002224951168,636.0122681,0.01625357382,636.0122681,0.1239909306,636.0122681,0.1189203113,636.0122681,0.01694048196,636.0122681,0.02132723294,
634.9864502,0.0008319948683,634.9864502,0.01749230735,634.9864502,0.122767441,634.9864502,0.1181905344,634.9864502,0.02019081078,634.9864502,0.02067100815,
633.9970093,-5.182061795E-005,633.9970093,0.01775180548,633.9970093,0.1197376251,633.9970093,0.1164712682,633.9970093,0.01952119172,633.9970093,0.02280787751,
633.0072632,0.000873182551,633.0072632,0.01648988016,633.0072632,0.1249579638,633.0072632,0.118900843,633.0072632,0.01951090246,633.0072632,0.02161819674,
632.0172729,0.0009037646232,632.0172729,0.01625534706,632.0172729,0.1244893447,632.0172729,0.118582055,632.0172729,0.01893785037,632.0172729,0.02392295003,
630.9902954,0.000229073572,630.9902954,0.01820855215,630.9902954,0.1256551892,630.9902954,0.1203910336,630.9902954,0.01777914912,630.9902954,0.02388840541,
629.9996948,-0.0001635685185,629.9996948,0.01770254038,629.9996948,0.1238310933,629.9996948,0.1188820899,629.9996948,0.01848222688,629.9996948,0.02256153896,
629.0088501,-0.0004685420427,629.0088501,0.01586693339,629.0088501,0.1245941445,629.0088501,0.1168870255,629.0088501,0.01792933047,629.0088501,0.02146858349,
628.0177002,-0.0003752878984,628.0177002,0.01799362153,628.0177002,0.1251899302,628.0177002,0.118001096,628.0177002,0.01945697144,628.0177002,0.02296122909,
626.989624,-0.0002550054633,626.989624,0.01771777496,626.989624,0.1221598685,626.989624,0.1187490225,626.989624,0.01944549195,626.989624,0.02276840247,
625.9978638,0.0005102791474,625.9978638,0.01769760624,625.9978638,0.1238333955,625.9978638,0.1173481792,625.9978638,0.01836198755,625.9978638,0.02344750613,
625.0059204,-0.0005566056352,625.0059204,0.01547114272,625.0059204,0.1199233234,625.0059204,0.1170340255,625.0059204,0.01658937521,625.0059204,0.02177929319,
624.0137329,0.0006796499365,624.0137329,0.0174734965,624.0137329,0.1231183931,624.0137329,0.1197728217,624.0137329,0.01846126653,624.0137329,0.02201100066,
622.984375,-0.000652147166,622.984375,0.01590388082,622.984375,0.119528994,622.984375,0.1178884059,622.984375,0.01699237898,622.984375,0.02229460329,
621.9915771,-0.0008723605424,621.9915771,0.01486267429,621.9915771,0.1228064522,621.9915771,0.116389975,621.9915771,0.01528831664,621.9915771,0.02277323231,
620.9985352,6.756763469E-005,620.9985352,0.01661269367,620.9985352,0.1214358583,620.9985352,0.1195079237,620.9985352,0.01746956259,620.9985352,0.02074835822,
620.005127,-0.0001652245846,620.005127,0.01584489085,620.005127,0.1247501224,620.005127,0.1159965396,620.005127,0.01631570794,620.005127,0.02183558233,
619.0115356,0.0006242225645,619.0115356,0.01518375706,619.0115356,0.1207577363,619.0115356,0.1179231107,619.0115356,0.01728971861,619.0115356,0.02274900861,
618.0177002,0.0008191569359,618.0177002,0.01469970495,618.0177002,0.1216751784,618.0177002,0.120772846,618.0177002,0.0177607853,618.0177002,0.02035373822,
616.9866333,-0.0002118508564,616.9866333,0.01560657471,616.9866333,0.1182729527,616.9866333,0.1162461713,616.9866333,0.01664849184,616.9866333,0.02117304504,
615.9921875,-0.0003165217931,615.9921875,0.0151689332,615.9921875,0.121204339,615.9921875,0.1194088161,615.9921875,0.01810733601,615.9921875,0.02220613137,
614.9974976,-7.972146705E-005,614.9974976,0.01570774801,614.9974976,0.1214799955,614.9974976,0.1177845374,614.9974976,0.01661734655,614.9974976,0.02181454003,
614.0025024,3.44297041E-005,614.0025024,0.01621673256,614.0025024,0.1207254007,614.0025024,0.1179920882,614.0025024,0.0183853209,614.0025024,0.0241036471,
613.0072021,0.0003318554373,613.0072021,0.01730563864,613.0072021,0.1232214794,613.0072021,0.1191979572,613.0072021,0.01677048951,613.0072021,0.02216025628,
612.0117798,0.0002679765457,612.0117798,0.01749645919,612.0117798,0.1235802993,612.0117798,0.119294636,612.0117798,0.0189512074,612.0117798,0.02196127735,
611.0159302,-1.392642753E-005,611.0159302,0.0164547395,611.0159302,0.125545755,611.0159302,0.1177104264,611.0159302,0.0196203012,611.0159302,0.02351056971,
609.9829712,0.0002831294551,609.9829712,0.01764969714,609.9829712,0.1238808408,609.9829712,0.120627515,609.9829712,0.01837937906,609.9829712,0.02315236442,
608.9866333,-0.0005013288464,608.9866333,0.016716199,608.9866333,0.1251479834,608.9866333,0.1185948104,608.9866333,0.01818506792,608.9866333,0.02310363203,
607.9899902,0.0006521946052,607.9899902,0.01879694127,607.9899902,0.1261096001,607.9899902,0.118568182,607.9899902,0.01911340095,607.9899902,0.02420038544,
606.993103,-9.147138189E-005,606.993103,0.01735405065,606.993103,0.1238421425,606.993103,0.1207400635,606.993103,0.01840057783,606.993103,0.02369257063,
605.9959717,0.0001431988931,605.9959717,0.0199933555,605.9959717,0.1267977357,605.9959717,0.1201216653,605.9959717,0.01933819428,605.9959717,0.02497582324,
604.9985962,-0.0002485894656,604.9985962,0.01927105337,604.9985962,0.1277869195,604.9985962,0.1226723567,604.9985962,0.0199654121,604.9985962,0.02358711697,
604.0009155,-0.0001390889229,604.0009155,0.01938623749,604.0009155,0.1261876076,604.0009155,0.12243139,604.0009155,0.02067516185,604.0009155,0.02445135452,
603.0029297,3.533578274E-005,603.0029297,0.01864553988,603.0029297,0.1263759583,603.0029297,0.1211957559,603.0029297,0.02191863954,603.0029297,0.02479413338,
602.0047607,0.000185124125,602.0047607,0.02086619101,602.0047607,0.1273845583,602.0047607,0.120597817,602.0047607,0.01944243349,602.0047607,0.02459594421,
601.0062256,0.0001054204549,601.0062256,0.02030802891,601.0062256,0.12765342,601.0062256,0.1214499697,601.0062256,0.02193778008,601.0062256,0.02639808692,
600.0075073,-3.784363798E-005,600.0075073,0.02117850818,600.0075073,0.1282636672,600.0075073,0.1225524768,600.0075073,0.02143518627,600.0075073,0.02780791372,
599.0085449,-0.0001270297507,599.0085449,0.02202330902,599.0085449,0.1274721324,599.0085449,0.1226278618,599.0085449,0.02258886024,599.0085449,0.02817423455,
598.0092163,-0.0003563035862,598.0092163,0.02197723463,598.0092163,0.1310391128,598.0092163,0.1247830316,598.0092163,0.02211667225,598.0092163,0.02809496969,
597.0097046,0.0002574345854,597.0097046,0.02305258252,597.0097046,0.131147638,597.0097046,0.1257231683,597.0097046,0.02411404438,597.0097046,0.02951544896,
596.0098877,-0.0001773344411,596.0098877,0.02510012873,596.0098877,0.133066237,596.0098877,0.1241384596,596.0098877,0.02456005849,596.0098877,0.02949154004,
595.0098877,0.000549103599,595.0098877,0.02455301955,595.0098877,0.1330474913,595.0098877,0.1269887388,595.0098877,0.02597595938,595.0098877,0.030243963,
594.0095825,0.0005293799331,594.0095825,0.02438412793,594.0095825,0.1335983425,594.0095825,0.127156496,594.0095825,0.02528567798,594.0095825,0.03220128268,
593.0089722,0.0003906395868,593.0089722,0.02648749761,593.0089722,0.1352538913,593.0089722,0.1290384084,593.0089722,0.02635083161,593.0089722,0.03239558265,
592.0081787,-0.0003711496829,592.0081787,0.02584461682,592.0081787,0.136069417,592.0081787,0.1304444373,592.0081787,0.02610942908,592.0081787,0.03368825838,
591.0070801,0.0001298375428,591.0070801,0.02756465413,591.0070801,0.1377364397,591.0070801,0.1316271424,591.0070801,0.02657849528,591.0070801,0.03548706323,
590.0056763,0.0001270410285,590.0056763,0.02859339118,590.0056763,0.1375794709,590.0056763,0.1341386288,590.0056763,0.02889657021,590.0056763,0.03644089401,
589.0040894,0.0005677395966,589.0040894,0.02957122587,589.0040894,0.1416384131,589.0040894,0.1343684345,589.0040894,0.03037169948,589.0040894,0.03576909378,
588.0021973,-0.0005424380652,588.0021973,0.03281347454,588.0021973,0.140576303,588.0021973,0.1335951388,588.0021973,0.03069376387,588.0021973,0.03809203207,
587.000061,-0.0003320935066,587.000061,0.03366890177,587.000061,0.1446914077,587.000061,0.1348841041,587.000061,0.03434986994,587.000061,0.04128189012,
585.9976807,0.0001920127834,585.9976807,0.0350891538,585.9976807,0.1473428309,585.9976807,0.1374822855,585.9976807,0.03489190713,585.9976807,0.04297360778,
584.9950562,-8.282720228E-005,584.9950562,0.0377644375,584.9950562,0.1467202306,584.9950562,0.138290897,584.9950562,0.03657364845,584.9950562,0.04492230341,
583.9921875,0.0001169167663,583.9921875,0.03823080659,583.9921875,0.1502908766,583.9921875,0.1413919926,583.9921875,0.03883817047,583.9921875,0.04746530205,
582.9889526,0.000236429114,582.9889526,0.0401478149,582.9889526,0.1532705277,582.9889526,0.1430708766,582.9889526,0.04070876911,582.9889526,0.05063056573,
581.9855957,7.675868255E-005,581.9855957,0.04366423935,581.9855957,0.1562363654,581.9855957,0.146127522,581.9855957,0.04308310524,581.9855957,0.05217983574,
580.9818726,5.501116539E-005,580.9818726,0.04561673477,580.9818726,0.1594281197,580.9818726,0.1496888846,580.9818726,0.04418447241,580.9818726,0.05546694249,
580.0151367,-0.001088692457,580.0151367,0.04738414288,580.0151367,0.1617180407,580.0151367,0.149057582,580.0151367,0.04534510523,580.0151367,0.05625090376,
579.0109863,-0.0007734565879,579.0109863,0.04917172715,579.0109863,0.1610185057,579.0109863,0.1514579207,579.0109863,0.04794854298,579.0109863,0.0588410981,
578.0065308,0.0006340735126,578.0065308,0.05306702852,578.0065308,0.1668086797,578.0065308,0.1545561552,578.0065308,0.04956453666,578.0065308,0.06253666431,
577.0018311,0.0001238302357,577.0018311,0.05572505668,577.0018311,0.1696546227,577.0018311,0.1562716812,577.0018311,0.05233571306,577.0018311,0.06579884887,
575.9968872,-0.0003881160519,575.9968872,0.05684737489,575.9968872,0.1728476584,575.9968872,0.159192279,575.9968872,0.05436138436,575.9968872,0.06750881672,
574.9917603,-0.0003352491767,574.9917603,0.05969455466,574.9917603,0.1748283058,574.9917603,0.1592634618,574.9917603,0.0568870604,574.9917603,0.06996191293,
573.9862061,0.00032203726,573.9862061,0.06023855507,573.9862061,0.175286144,573.9862061,0.1619598269,573.9862061,0.05783420429,573.9862061,0.07221473008,
573.0177612,0.0002005331189,573.0177612,0.06251528859,573.0177612,0.1789141744,573.0177612,0.1636461616,573.0177612,0.05945360288,573.0177612,0.07267718017,
572.0118408,0.0006800128613,572.0118408,0.06423915178,572.0118408,0.1801567823,572.0118408,0.1663364321,572.0118408,0.06056814268,572.0118408,0.07573287189,
571.0056763,2.943334403E-005,571.0056763,0.06410177052,571.0056763,0.181949839,571.0056763,0.1656685472,571.0056763,0.0609388724,571.0056763,0.0764701888,
569.9992065,0.000472727872,569.9992065,0.06568940729,569.9992065,0.1826588362,569.9992065,0.1675313562,569.9992065,0.06256542355,569.9992065,0.07750120014,
568.9925537,-0.000500656548,568.9925537,0.06551580876,568.9925537,0.180863589,568.9925537,0.1656006873,568.9925537,0.06120824441,568.9925537,0.07557687163,
567.9855957,0.0002287109673,567.9855957,0.06477928907,567.9855957,0.1834585816,567.9855957,0.1678195,567.9855957,0.06301295012,567.9855957,0.0771631524,
567.0157471,-0.000208642552,567.0157471,0.06481992453,567.0157471,0.182174623,567.0157471,0.166775316,567.0157471,0.06228334829,567.0157471,0.07643014938,
566.0082397,-0.0002168185165,566.0082397,0.0650646165,566.0082397,0.1804356128,566.0082397,0.1659773439,566.0082397,0.06214372069,566.0082397,0.07511917502,
565.0006104,-0.0004365285859,565.0006104,0.06341093034,565.0006104,0.1796075851,565.0006104,0.1635693014,565.0006104,0.05997691676,565.0006104,0.07563795894,
563.9926147,0.0005253627314,563.9926147,0.06461539865,563.9926147,0.1797985286,563.9926147,0.1646902859,563.9926147,0.06133379415,563.9926147,0.07522267848,
562.9844971,-0.0005331824068,562.9844971,0.06346081197,562.9844971,0.1803892553,562.9844971,0.1630681902,562.9844971,0.06066061556,562.9844971,0.0753909573,
562.0134277,5.959358896E-005,562.0134277,0.06298011541,562.0134277,0.1796115786,562.0134277,0.1635032147,562.0134277,0.05971991643,562.0134277,0.07422441989,
561.0047607,-0.0003516996221,561.0047607,0.0613578856,561.0047607,0.1793500483,561.0047607,0.1622301638,561.0047607,0.0590653047,561.0047607,0.07452856004,
559.9957886,-0.0001826647494,559.9957886,0.06233273819,559.9957886,0.1768889874,559.9957886,0.1649489999,559.9957886,0.05953452736,559.9957886,0.07363913208,
558.9866943,0.0003117271408,558.9866943,0.06062507629,558.9866943,0.1760611087,558.9866943,0.1648298055,558.9866943,0.05825073645,558.9866943,0.07272084802,
558.0146484,-0.0002814445761,558.0146484,0.06138355657,558.0146484,0.1767071933,558.0146484,0.1624375135,558.0146484,0.05774957314,558.0146484,0.07200761884,
557.0050659,-0.000583853689,557.0050659,0.05978936702,557.0050659,0.17730093,557.0050659,0.1623717397,557.0050659,0.05751776695,557.0050659,0.07235152274,
555.9951172,8.180736768E-005,555.9951172,0.05924352258,555.9951172,0.1774744391,555.9951172,0.1604598612,555.9951172,0.05792272463,555.9951172,0.07109414786,
554.9849854,-0.0003225229157,554.9849854,0.06051350385,554.9849854,0.1766091883,554.9849854,0.1638737023,554.9849854,0.05726012588,554.9849854,0.07171824574,
554.012085,0.0005481705302,554.012085,0.05977965146,554.012085,0.1780818254,554.012085,0.1618452817,554.012085,0.05791373551,554.012085,0.07133463025,
553.0014648,-0.0001445749513,553.0014648,0.06119149551,553.0014648,0.1795933694,553.0014648,0.1636572182,553.0014648,0.05859715492,553.0014648,0.07308905572,
551.9905396,-0.0001809569803,551.9905396,0.06140400842,551.9905396,0.17695418,551.9905396,0.1648660898,551.9905396,0.05924491584,551.9905396,0.07334471494,
551.0169067,-0.0004654907971,551.0169067,0.06099755317,551.0169067,0.1783640981,551.0169067,0.1639322639,551.0169067,0.05831269547,551.0169067,0.07286006212,
550.0056763,0.0002574604878,550.0056763,0.06187069416,550.0056763,0.1795519143,550.0056763,0.1644921452,550.0056763,0.05877799541,550.0056763,0.0746344775,
548.9940186,2.197774302E-005,548.9940186,0.06459611654,548.9940186,0.1819727123,548.9940186,0.1656909138,548.9940186,0.06115069613,548.9940186,0.07547593117,
547.9821777,-6.730299447E-006,547.9821777,0.06476315856,547.9821777,0.1849694252,547.9821777,0.1677200049,547.9821777,0.06130651757,547.9821777,0.07640808076,
547.0076294,0.0003680732043,547.0076294,0.06574758887,547.0076294,0.1835743487,547.0076294,0.1694408953,547.0076294,0.06261861324,547.0076294,0.07803266495,
545.9954224,3.437792475E-005,545.9954224,0.06650397182,545.9954224,0.1833914071,545.9954224,0.1694533974,545.9954224,0.06310139596,545.9954224,0.07824276388,
544.9828491,-3.799893966E-005,544.9828491,0.06742049009,544.9828491,0.1861673295,544.9828491,0.1701410115,544.9828491,0.0645436421,544.9828491,0.07951845229,
544.0076294,0.000241945876,544.0076294,0.06786194444,544.0076294,0.1886879206,544.0076294,0.1702713668,544.0076294,0.06470414251,544.0076294,0.0813703835,
542.9946289,-2.485045798E-006,542.9946289,0.06852441281,542.9946289,0.1880015135,542.9946289,0.1705854088,542.9946289,0.06580415368,542.9946289,0.08176371455,
541.9813843,-0.0002132997615,541.9813843,0.0690632388,541.9813843,0.1910296082,541.9813843,0.1739162952,541.9813843,0.06573499739,541.9813843,0.08223763853,
541.0054321,3.440381624E-005,541.0054321,0.06940875947,541.0054321,0.1884239614,541.0054321,0.1737844199,541.0054321,0.0658192113,541.0054321,0.08220501244,
539.9917603,-0.0002332217118,539.9917603,0.06979633123,539.9917603,0.1896918565,539.9917603,0.1733065248,539.9917603,0.06732814014,539.9917603,0.08295278251,
539.0153809,5.229280578E-005,539.0153809,0.07055654377,539.0153809,0.1911332756,539.0153809,0.1737626344,539.0153809,0.06818410009,539.0153809,0.0830585435,
538.0012207,0.0001793750271,538.0012207,0.07011329383,538.0012207,0.1919342577,538.0012207,0.1736011505,538.0012207,0.066929847,538.0012207,0.08413358033,
536.9867554,2.140822289E-005,536.9867554,0.07094568759,536.9867554,0.1925416887,536.9867554,0.1773690879,536.9867554,0.06797199696,536.9867554,0.08384948224,
536.0097046,0.0001401174668,536.0097046,0.0712012127,536.0097046,0.1919251978,536.0097046,0.1753855646,536.0097046,0.06781885028,536.0097046,0.08447810262,
534.9949341,7.41696349E-005,534.9949341,0.07114629447,534.9949341,0.191471383,534.9949341,0.1711824536,534.9949341,0.06865264475,534.9949341,0.08415614069,
534.017395,0.0002551811631,534.017395,0.07145765424,534.017395,0.1944387108,534.017395,0.1782922,534.017395,0.06742034107,534.017395,0.08386263996,
533.0020752,0.0001936961198,533.0020752,0.07115802914,533.0020752,0.1908908635,533.0020752,0.176022023,533.0020752,0.06843645871,533.0020752,0.08370611072,
531.9865112,-0.0002697515301,531.9865112,0.07088750601,531.9865112,0.1913567483,531.9865112,0.1727872342,531.9865112,0.06766100228,531.9865112,0.08333647996,
531.0083618,-0.0001459205669,531.0083618,0.0704216361,531.0083618,0.1920417547,531.0083618,0.1743046343,531.0083618,0.06703842431,531.0083618,0.08290540427,
529.9923096,0.0001839328615,529.9923096,0.07053328305,529.9923096,0.1922673583,529.9923096,0.1729167998,529.9923096,0.06672091782,529.9923096,0.08244230598,
529.0136719,8.092707867E-005,529.0136719,0.06954053789,529.0136719,0.1929918677,529.0136719,0.1770691276,529.0136719,0.06695400178,529.0136719,0.0821961537,
527.9972534,8.035748033E-005,527.9972534,0.06911024451,527.9972534,0.1876822859,527.9972534,0.1723594368,527.9972534,0.06620479375,527.9972534,0.08120444417,
527.0181274,0.0003320626856,527.0181274,0.06879992783,527.0181274,0.1900305301,527.0181274,0.1735045314,527.0181274,0.06612656265,527.0181274,0.08188807219,
526.0012207,0.0002776121837,526.0012207,0.06837588549,526.0012207,0.1899492592,526.0012207,0.1750194579,526.0012207,0.06524185836,526.0012207,0.08084127307,
524.9840088,0.000113343558,524.9840088,0.06789602339,524.9840088,0.1879912615,524.9840088,0.1727067828,524.9840088,0.06470474601,524.9840088,0.07957030833,
524.0043945,0.0001679806446,524.0043945,0.06777136773,524.0043945,0.1872878224,524.0043945,0.1700287163,524.0043945,0.06446757913,524.0043945,0.07864574343,
522.9866943,-0.0002010874159,522.9866943,0.06543923914,522.9866943,0.1857454926,522.9866943,0.1711708605,522.9866943,0.06302919984,522.9866943,0.07882843167,
522.0065918,3.171146818E-005,522.0065918,0.06557442248,522.0065918,0.1858626604,522.0065918,0.1725843549,522.0065918,0.06349044293,522.0065918,0.07851614803,
520.9885254,7.020842168E-005,520.9885254,0.06541699916,520.9885254,0.1869634539,520.9885254,0.1718210876,520.9885254,0.06264492869,520.9885254,0.07663772255,
520.0079346,2.417816722E-005,520.0079346,0.06478250772,520.0079346,0.1851189733,520.0079346,0.1702219844,520.0079346,0.062517263,520.0079346,0.07600513846,
518.9894409,-5.399477232E-005,518.9894409,0.06519038975,518.9894409,0.1863158196,518.9894409,0.171050638,518.9894409,0.06258294731,518.9894409,0.07648982108,
518.0084229,-2.697234049E-005,518.0084229,0.06426784396,518.0084229,0.1847296804,518.0084229,0.1687483341,518.0084229,0.06112322211,518.0084229,0.07481849194,
516.9894409,0.0001380718168,516.9894409,0.06360352784,516.9894409,0.1833741516,516.9894409,0.1695443839,516.9894409,0.06052960455,516.9894409,0.07403129339,
516.0079346,0.0001442605717,516.0079346,0.06233710051,516.0079346,0.1821643114,516.0079346,0.1681080312,516.0079346,0.06111237407,516.0079346,0.07484011352,
514.9885864,0.0001051615327,514.9885864,0.06174256653,514.9885864,0.1812218875,514.9885864,0.1672207415,514.9885864,0.06065680459,514.9885864,0.0729021281,
514.0067139,-0.0002438808733,514.0067139,0.06030597538,514.0067139,0.1803058535,514.0067139,0.1666306555,514.0067139,0.05816425011,514.0067139,0.07202047855,
512.9868774,0.000279528962,512.9868774,0.06142846122,512.9868774,0.1816798598,512.9868774,0.1675142646,512.9868774,0.05950208008,512.9868774,0.07202818245,
512.0045776,-0.0002365850669,512.0045776,0.06023531407,512.0045776,0.1815301925,512.0045776,0.1669207066,512.0045776,0.05872497708,512.0045776,0.07103140652,
510.9842529,0.000185357203,510.9842529,0.05914090946,510.9842529,0.1793640554,510.9842529,0.1659338325,510.9842529,0.0583373867,510.9842529,0.07182839513,
510.0015564,5.824733307E-005,510.0015564,0.05931607261,510.0015564,0.177825734,510.0015564,0.1645062119,510.0015564,0.05821891502,510.0015564,0.0699063614,
509.0186157,-0.0005741852219,509.0186157,0.05805165321,509.0186157,0.1785478592,509.0186157,0.1625810415,509.0186157,0.05727317929,509.0186157,0.06880284101,
507.9976807,-0.0003138833272,507.9976807,0.05894239619,507.9976807,0.1785282195,507.9976807,0.162621513,507.9976807,0.05634986237,507.9976807,0.06840264052,
507.0143433,-6.1604238E-005,507.0143433,0.05831453204,507.0143433,0.1776584089,507.0143433,0.1635471582,507.0143433,0.05610993505,507.0143433,0.06844318658,
505.9929199,-0.0004045645182,505.9929199,0.05770697072,505.9929199,0.1773767173,505.9929199,0.1628929228,505.9929199,0.05620558932,505.9929199,0.06697940081,
505.0091553,-0.000304415822,505.0091553,0.05717185512,505.0091553,0.1755041927,505.0091553,0.1619545668,505.0091553,0.05362109467,505.0091553,0.06730831414,
503.9873352,-2.303790097E-005,503.9873352,0.05565922707,503.9873352,0.1772488803,503.9873352,0.1605357528,503.9873352,0.05457163975,503.9873352,0.06583987921,
503.0031433,0.0002371802257,503.0031433,0.05557042733,503.0031433,0.1771670878,503.0031433,0.1625722349,503.0031433,0.05463839322,503.0031433,0.06573355198,
502.0187378,0.0001368547819,502.0187378,0.05500197411,502.0187378,0.1762475967,502.0187378,0.1608088315,502.0187378,0.05436971784,502.0187378,0.0654855594,
500.9962463,0.000504603493,500.9962463,0.05479345098,500.9962463,0.1741691232,500.9962463,0.1628473848,500.9962463,0.05389408022,500.9962463,0.06438476592,
500.0114136,0.0002818084031,500.0114136,0.05523758754,500.0114136,0.1754166484,500.0114136,0.1617435813,500.0114136,0.05234353989,500.0114136,0.06438437104,
498.9885254,0.000344290369,498.9885254,0.05493590236,498.9885254,0.175165385,498.9885254,0.1598723382,498.9885254,0.05379670858,498.9885254,0.06435155869,
498.0032654,0.0002476180962,498.0032654,0.0542608574,498.0032654,0.1759064198,498.0032654,0.1593732238,498.0032654,0.05247000232,498.0032654,0.06446000934,
497.0178833,7.735416148E-005,497.0178833,0.05353124812,497.0178833,0.1728319675,497.0178833,0.1607770771,497.0178833,0.05154181644,497.0178833,0.06316877902,
495.9942932,-8.801140211E-006,495.9942932,0.0534978658,495.9942932,0.1721875817,495.9942932,0.1596063972,495.9942932,0.05253324658,495.9942932,0.06290902197,
495.0084534,-0.0001884607191,495.0084534,0.05376533046,495.0084534,0.1720792353,495.0084534,0.1606235355,495.0084534,0.05238915607,495.0084534,0.06242534891,
493.9845276,0.0001684467716,493.9845276,0.05408121273,493.9845276,0.1741063148,493.9845276,0.1596604586,493.9845276,0.05154076964,493.9845276,0.06338019669,
492.9981995,-9.778617823E-005,492.9981995,0.05340213329,492.9981995,0.1733971238,492.9981995,0.1585787684,492.9981995,0.05094161257,492.9981995,0.06269077212,
492.0117798,-2.479804971E-005,492.0117798,0.05284797028,492.0117798,0.173803851,492.0117798,0.1630499512,492.0117798,0.05119888484,492.0117798,0.06225556135,
490.9871521,-8.960798004E-005,490.9871521,0.05270804092,490.9871521,0.1701618731,490.9871521,0.1595773846,490.9871521,0.0516455397,490.9871521,0.06290414184,
490.0003052,-8.034261555E-005,490.0003052,0.0535585992,490.0003052,0.1725932956,490.0003052,0.1574034542,490.0003052,0.05147982389,490.0003052,0.06202106923,
489.0132446,-9.866610344E-005,489.0132446,0.05334900692,489.0132446,0.1746548563,489.0132446,0.1609193832,489.0132446,0.05115744099,489.0132446,0.06232700124,
487.9879761,0.0002002223337,487.9879761,0.05300847441,487.9879761,0.1749887466,487.9879761,0.1620674878,487.9879761,0.05127682909,487.9879761,0.06266074628,
487.0005493,0.0001860305201,487.0005493,0.05281168967,487.0005493,0.1723975837,487.0005493,0.1601809263,487.0005493,0.05132941157,487.0005493,0.06299900264,
486.0128784,0.0001887497201,486.0128784,0.05304246023,486.0128784,0.1731575578,486.0128784,0.1590896249,486.0128784,0.05141848326,486.0128784,0.06322410703,
484.9869385,8.066817099E-005,484.9869385,0.05367100239,484.9869385,0.1717401594,484.9869385,0.1593495011,484.9869385,0.05180597678,484.9869385,0.0626590699,
483.9988708,0.0001652097853,483.9988708,0.05341864377,483.9988708,0.1753031462,483.9988708,0.1628382355,483.9988708,0.05139954016,483.9988708,0.06309752911,
483.0106201,-0.0002898778475,483.0106201,0.05339130387,483.0106201,0.1726528406,483.0106201,0.1602193415,483.0106201,0.05163247883,483.0106201,0.06302054971,
481.9841003,-0.0001131587123,481.9841003,0.05317573622,481.9841003,0.1721007079,481.9841003,0.1608131677,481.9841003,0.05255907401,481.9841003,0.06300528347,
480.9954529,-0.0002914299839,480.9954529,0.05386524647,480.9954529,0.1731196493,480.9954529,0.1598631442,480.9954529,0.05198255181,480.9954529,0.062938191,
480.0066223,0.0001762415486,480.0066223,0.05490591004,480.0066223,0.1727462709,480.0066223,0.1620349735,480.0066223,0.05292352289,480.0066223,0.06336099654,
479.0174866,-7.055941387E-005,479.0174866,0.05518364534,479.0174866,0.1732889712,479.0174866,0.1619030088,479.0174866,0.05268606544,479.0174866,0.06381770968,
477.9902649,0.0002421530662,477.9902649,0.05453750491,477.9902649,0.1763045788,477.9902649,0.1641077101,477.9902649,0.05337087065,477.9902649,0.06494700164,
477.0007324,-0.0001739706349,477.0007324,0.05554980785,477.0007324,0.1779139638,477.0007324,0.1630665958,477.0007324,0.05318369716,477.0007324,0.06500078738,
476.0110779,5.449338278E-005,476.0110779,0.0563913025,476.0110779,0.1767159551,476.0110779,0.1644333601,476.0110779,0.05466807261,476.0110779,0.0656041652,
474.9832153,-6.869592471E-005,474.9832153,0.05626510829,474.9832153,0.1783375591,474.9832153,0.1652784497,474.9832153,0.05466833711,474.9832153,0.06551698595,
473.993103,3.031352753E-005,473.993103,0.05655421317,473.993103,0.1782544255,473.993103,0.1659365594,473.993103,0.05528009683,473.993103,0.06712195277,
473.0028687,-0.0003977369342,473.0028687,0.05779454857,473.0028687,0.1812666357,473.0028687,0.1685173064,473.0028687,0.05625005066,473.0028687,0.06761832535,
472.0124207,-0.0001974132902,472.0124207,0.05921539664,472.0124207,0.1822562665,472.0124207,0.16750817,472.0124207,0.05677204952,472.0124207,0.06876177341,
470.9836426,-0.0001337063295,470.9836426,0.06037795544,470.9836426,0.18139413,470.9836426,0.1673849672,470.9836426,0.05844671279,470.9836426,0.07039107382,
469.9928284,-0.0003324038989,469.9928284,0.0606709756,469.9928284,0.1844813973,469.9928284,0.1691302061,469.9928284,0.05855920538,469.9928284,0.07170001417,
469.0018005,-0.0002617835416,469.0018005,0.06242591888,469.0018005,0.1852336824,469.0018005,0.1702623516,469.0018005,0.05986236036,469.0018005,0.07305404544,
468.0105591,-0.0001665183954,468.0105591,0.06321839243,468.0105591,0.186993435,468.0105591,0.1721222848,468.0105591,0.06044721231,468.0105591,0.07361023873,
466.9811096,-0.0001814227435,466.9811096,0.06462913007,466.9811096,0.1877377182,466.9811096,0.1730133295,466.9811096,0.06171013415,466.9811096,0.07500981539,
465.989502,-6.626757113E-006,465.989502,0.06648029387,465.989502,0.1895803362,465.989502,0.1752456427,465.989502,0.06378958374,465.989502,0.07754504681,
464.9976501,-8.29307246E-005,464.9976501,0.06739424914,464.9976501,0.1919957548,464.9976501,0.176445201,464.9976501,0.06393109262,464.9976501,0.07902413607,
464.0056763,-6.34159951E-005,464.0056763,0.0697106421,464.0056763,0.1943534911,464.0056763,0.1760464013,464.0056763,0.06624414027,464.0056763,0.07981307805,
463.0135498,0.0003479691222,463.0135498,0.07162079215,463.0135498,0.1957723349,463.0135498,0.1803921163,463.0135498,0.06848607212,463.0135498,0.08351571858,
461.9829712,-0.0001906341931,461.9829712,0.07302422076,461.9829712,0.19825764,461.9829712,0.1809150577,461.9829712,0.06987120956,461.9829712,0.08541795611,
460.990448,-0.0001767134381,460.990448,0.07462777197,460.990448,0.2006638497,460.990448,0.1822647303,460.990448,0.07183633745,460.990448,0.08775308728,
459.9977112,0.0001402987255,459.9977112,0.07692822814,459.9977112,0.2061666399,459.9977112,0.1852034181,459.9977112,0.07329681516,459.9977112,0.08999054879,
459.0047607,-7.216408267E-005,459.0047607,0.07921925187,459.0047607,0.2035360634,459.0047607,0.1868969351,459.0047607,0.07573203743,459.0047607,0.09311435372,
458.0116272,-0.0004301152658,458.0116272,0.08172309399,458.0116272,0.2080943584,458.0116272,0.1892284453,458.0116272,0.07702613622,458.0116272,0.09563195705,
457.0183105,7.108868886E-005,457.0183105,0.08435687423,457.0183105,0.2123604119,457.0183105,0.1920308024,457.0183105,0.08099153638,457.0183105,0.09888519347,
455.9866028,-2.588519601E-005,455.9866028,0.0869763568,455.9866028,0.2143843621,455.9866028,0.1966171861,455.9866028,0.08315449208,455.9866028,0.1021179482,
454.9929199,3.437792475E-005,454.9929199,0.09072136134,454.9929199,0.2203848511,454.9929199,0.1987880319,454.9929199,0.08667526394,454.9929199,0.1046702638,
453.999054,-0.0004137195065,453.999054,0.09436251223,453.999054,0.2239845246,453.999054,0.2015688866,453.999054,0.0888627544,453.999054,0.109530136,
453.0049438,6.419767487E-006,453.0049438,0.0973271355,453.0049438,0.228871733,453.0049438,0.2049402893,453.0049438,0.09181769192,453.0049438,0.1135847345,
452.0107422,-0.0003176599566,452.0107422,0.1017586887,452.0107422,0.2311840355,452.0107422,0.2075371742,452.0107422,0.09505561739,452.0107422,0.117351301,
451.0163269,-0.0003870298096,451.0163269,0.1057939082,451.0163269,0.2372490615,451.0163269,0.2124164999,451.0163269,0.09965194017,451.0163269,0.1216357499,
449.983429,0.0002014913334,449.983429,0.1096025631,449.983429,0.2430953383,449.983429,0.2178825736,449.983429,0.1037608311,449.983429,0.128094703,
448.9886475,-6.13971788E-005,448.9886475,0.1144099385,448.9886475,0.2475363463,448.9886475,0.2203344107,448.9886475,0.1075248271,448.9886475,0.1329651028,
447.9936523,5.568428605E-005,447.9936523,0.1187518835,447.9936523,0.2511618435,447.9936523,0.2258535326,447.9936523,0.1121949255,447.9936523,0.1382679492,
446.9985046,-8.749369044E-006,446.9985046,0.1249657944,446.9985046,0.260949105,446.9985046,0.2307796925,446.9985046,0.1169545203,446.9985046,0.143485859,
446.0031128,-0.0002642153413,446.0031128,0.129039079,446.0031128,0.2656654716,446.0031128,0.2365971059,446.0031128,0.1224415153,446.0031128,0.1511301994,
445.0075989,-0.0003232471936,445.0075989,0.1353473514,445.0075989,0.2738223374,445.0075989,0.2420753241,445.0075989,0.1272882819,445.0075989,0.1582811028,
444.0118408,-0.0002452261979,444.0118408,0.1433338076,444.0118408,0.2815606892,444.0118408,0.2493415922,444.0118408,0.133257091,444.0118408,0.1653971225,
443.0159912,1.343502572E-005,443.0159912,0.1517049074,443.0159912,0.2912762463,443.0159912,0.2578702867,443.0159912,0.1422396749,443.0159912,0.1741120666,
441.9815979,-0.0001363458723,441.9815979,0.1600313038,441.9815979,0.302095741,441.9815979,0.2652162015,441.9815979,0.1519046128,441.9815979,0.1845670789,
440.985321,0.0003655601467,440.985321,0.172574684,440.985321,0.3149894178,440.985321,0.2759558558,440.985321,0.1602644473,440.985321,0.195715338,
439.9888916,-4.762757089E-005,439.9888916,0.1805527061,439.9888916,0.3256825507,439.9888916,0.2850182354,439.9888916,0.1680881232,439.9888916,0.2081857324,
438.9923096,0.0001471607684,438.9923096,0.1932613403,438.9923096,0.3399377465,438.9923096,0.2969923317,438.9923096,0.181191951,438.9923096,0.2217873484,
437.9954529,-0.0002043475251,437.9954529,0.2057878375,437.9954529,0.3546725214,437.9954529,0.3085315526,437.9954529,0.1931204647,437.9954529,0.2366152704,
436.9984741,1.623080607E-005,436.9984741,0.2215439081,436.9984741,0.3738460839,436.9984741,0.3235386014,436.9984741,0.2076773643,436.9984741,0.2532992661,
436.0013733,-0.0001648623293,436.0013733,0.2382262498,436.0013733,0.3912437558,436.0013733,0.3378210962,436.0013733,0.2211716473,436.0013733,0.270078212,
435.0039673,0.0002259397152,435.0039673,0.2564376593,435.0039673,0.41595608,435.0039673,0.3558558822,435.0039673,0.2372626066,435.0039673,0.2933708727,
434.0064697,0.0002282447822,434.0064697,0.2760881782,434.0064697,0.4368925393,434.0064697,0.3743822575,434.0064697,0.2551982105,434.0064697,0.3168776929,
433.008728,-0.0001105707779,433.008728,0.2967547178,433.008728,0.4634997249,433.008728,0.3942579031,433.008728,0.2772071064,433.008728,0.341450572,
432.0108948,0.0001792714465,432.0108948,0.3215295076,432.0108948,0.4904600382,432.0108948,0.4151467085,432.0108948,0.2966595292,432.0108948,0.368342042,
431.0128784,-0.0001603598503,431.0128784,0.3461529911,431.0128784,0.517547369,431.0128784,0.4399734437,431.0128784,0.3199822009,431.0128784,0.3929153979,
430.0146484,-0.0001368634257,430.0146484,0.3732237518,430.0146484,0.5489460826,430.0146484,0.4657348096,430.0146484,0.3448281586,430.0146484,0.4240171909,
429.0162354,2.738821786E-005,429.0162354,0.3951632082,429.0162354,0.5785112381,429.0162354,0.4930045307,429.0162354,0.3709767461,429.0162354,0.4553119838,
428.0177002,9.817068349E-005,428.0177002,0.4276624918,428.0177002,0.6122483015,428.0177002,0.5172237158,428.0177002,0.3943923414,428.0177002,0.490814805,
427.0189209,-0.0002452779445,427.0189209,0.4563824236,427.0189209,0.6468022466,427.0189209,0.5438591242,427.0189209,0.4210903645,427.0189209,0.5217480063,
425.9815979,-6.087953079E-005,425.9815979,0.4868883789,425.9815979,0.680364728,425.9815979,0.5750060678,425.9815979,0.4496329129,425.9815979,0.553021431,
424.9824829,-0.0002701654739,424.9824829,0.5131551623,424.9824829,0.712243259,424.9824829,0.5968533754,424.9824829,0.4752857089,424.9824829,0.5821278691,
423.9832458,0.000215890861,423.9832458,0.539532423,423.9832458,0.7414928675,423.9832458,0.6218963265,423.9832458,0.4958397448,423.9832458,0.6130954027,
422.9837952,-0.0003325073631,422.9837952,0.5616886616,422.9837952,0.7664238811,422.9837952,0.6431976557,422.9837952,0.5159032941,422.9837952,0.6373174787,
421.9841614,5.449338278E-005,421.9841614,0.5811111331,421.9841614,0.7947294712,421.9841614,0.6652612686,421.9841614,0.5391249657,421.9841614,0.6643484831,
420.984375,0.0002074997174,420.984375,0.5994123816,420.984375,0.8111794591,420.984375,0.6810899377,420.984375,0.5534754395,420.984375,0.6780189872,
419.984436,0.0001146640861,419.984436,0.6131008267,419.984436,0.8261260986,419.984436,0.6898393035,419.984436,0.5650967956,419.984436,0.6939891577,
418.9842834,6.578122702E-005,418.9842834,0.6224187016,418.9842834,0.8369623423,418.9842834,0.7008064389,418.9842834,0.575181663,418.9842834,0.7059979439,
417.9839783,-8.738223551E-005,417.9839783,0.627834022,417.9839783,0.8449676633,417.9839783,0.7069588304,417.9839783,0.5812820196,417.9839783,0.7110384703,
416.9835205,-0.0001157466249,416.9835205,0.6279394031,416.9835205,0.8455920219,416.9835205,0.7050580978,416.9835205,0.5827958584,416.9835205,0.7123397589,
415.9828491,0.0001855643786,415.9828491,0.6242938638,415.9828491,0.8463400006,415.9828491,0.7035016418,415.9828491,0.5775853992,415.9828491,0.7133802772,
414.9820557,9.4856543E-005,414.9820557,0.6194660068,414.9820557,0.8343405128,414.9820557,0.6995429993,414.9820557,0.5755731463,414.9820557,0.7052259445,
413.9810181,0.000334730983,413.9810181,0.6116952896,413.9810181,0.8270307183,413.9810181,0.6909370422,413.9810181,0.5661753416,413.9810181,0.6967913508,
413.0184021,8.188503853E-005,413.0184021,0.6024656892,413.0184021,0.8136840463,413.0184021,0.6783056855,413.0184021,0.558727026,413.0184021,0.6850920916,
412.0171204,0.0006260371883,412.0171204,0.5893214941,412.0171204,0.8011148572,412.0171204,0.6703426838,412.0171204,0.5466653109,412.0171204,0.6711833477,
411.015625,0.0002492757339,411.015625,0.5754578114,411.015625,0.7841532826,411.015625,0.6548000574,411.015625,0.53104949,411.015625,0.6542568803,
410.0139771,-0.0005132741644,410.0139771,0.5595690012,410.0139771,0.7649488449,410.0139771,0.6416598558,410.0139771,0.5217626691,410.0139771,0.6432290673,
409.0121765,0.0003314668429,409.0121765,0.5459456444,409.0121765,0.7525422573,409.0121765,0.6282105446,409.0121765,0.5054775476,409.0121765,0.6270490885,
408.0101318,0.0001022098295,408.0101318,0.5304705501,408.0101318,0.7355235219,408.0101318,0.6171402335,408.0101318,0.4955518246,408.0101318,0.607989192,
407.0079956,4.936734695E-005,407.0079956,0.5187969208,407.0079956,0.7219417095,407.0079956,0.6030802131,407.0079956,0.4823873341,407.0079956,0.5954194665,
406.0057068,0.0001758530998,406.0057068,0.5067014098,406.0057068,0.7059853077,406.0057068,0.5930945873,406.0057068,0.4678183496,406.0057068,0.579384923,
405.0032349,6.30110153E-005,405.0032349,0.4919627607,405.0032349,0.6975467205,405.0032349,0.5774514079,405.0032349,0.4577589631,405.0032349,0.5667683482,
404.0005493,-0.0002334804303,404.0005493,0.4789370894,404.0005493,0.6815006137,404.0005493,0.5673443675,404.0005493,0.4469938874,404.0005493,0.5532115698,
402.9977417,-6.864416355E-005,402.9977417,0.4691701233,402.9977417,0.6665670872,402.9977417,0.5574828386,402.9977417,0.4352228045,402.9977417,0.5419488549,
401.9947815,-0.0001763511827,401.9947815,0.4602555037,401.9947815,0.6594638228,401.9947815,0.5432877541,401.9947815,0.4266788661,401.9947815,0.530387044,
400.9916077,0.0001107025091,400.9916077,0.4493336082,400.9916077,0.6490625739,400.9916077,0.5384849906,400.9916077,0.419601202,400.9916077,0.5197646022,
399.9883118,-0.000299811305,399.9883118,0.4397332668,399.9883118,0.638861835,399.9883118,0.5306143165,399.9883118,0.4125202596,399.9883118,0.5101971626,
398.9848328,-0.0001112436439,398.9848328,0.4346102178,398.9848328,0.6292185187,398.9848328,0.5227713585,398.9848328,0.4040133059,398.9848328,0.5017895699,
397.9812317,0.0001070775616,397.9812317,0.4245181382,397.9812317,0.6217830181,397.9812317,0.5161456466,397.9812317,0.3957892656,397.9812317,0.4923433065,
397.0160522,6.280389789E-005,397.0160522,0.4154801667,397.0160522,0.6089308858,397.0160522,0.5088835359,397.0160522,0.3894228935,397.0160522,0.4857218862,
396.012085,0.000136518167,396.012085,0.4102237821,396.012085,0.601813674,396.012085,0.5017881989,396.012085,0.3830578625,396.012085,0.4753834009,
395.0079956,0.0002818602079,395.0079956,0.4025658369,395.0079956,0.5943236947,395.0079956,0.4951563478,395.0079956,0.3768985868,395.0079956,0.4678149223,
394.0037231,0.0003477877763,394.0037231,0.3962132633,394.0037231,0.5903009772,394.0037231,0.4871455431,394.0037231,0.3711218834,394.0037231,0.4604074061,
392.9992981,2.288379801E-005,392.9992981,0.3880501091,392.9992981,0.5763275623,392.9992981,0.477870971,392.9992981,0.36306867,392.9992981,0.4534109235,
391.9946899,-0.0001607738668,391.9946899,0.3803547621,391.9946899,0.5721219778,391.9946899,0.4737477303,391.9946899,0.3553483784,391.9946899,0.4428736567,
390.9899292,4.294694372E-005,390.9899292,0.3714823127,390.9899292,0.560946703,390.9899292,0.4683546424,390.9899292,0.3479704857,390.9899292,0.4351819158,
389.9850159,-0.0001555985655,389.9850159,0.3650275767,389.9850159,0.551199019,389.9850159,0.4590734243,389.9850159,0.3412745893,389.9850159,0.4262140393,
389.0185852,0.0002177555725,389.0185852,0.3571429253,389.0185852,0.5429152846,389.0185852,0.4523946643,389.0185852,0.3355055749,389.0185852,0.4180325568,
388.0133667,7.991733582E-005,388.0133667,0.3482492566,388.0133667,0.5337993503,388.0133667,0.4447223246,388.0133667,0.3271054626,388.0133667,0.4075257778,
387.0079956,0.00028198972,387.0079956,0.3421693444,387.0079956,0.5238248706,387.0079956,0.4360669553,387.0079956,0.3194949329,387.0079956,0.3996910155,
386.0024414,-0.0001017199393,386.0024414,0.3329768777,386.0024414,0.5154225826,386.0024414,0.4319039881,386.0024414,0.3119069338,386.0024414,0.3903001845,
384.9967651,-7.728862693E-005,384.9967651,0.3251394629,384.9967651,0.5063121319,384.9967651,0.424474746,384.9967651,0.3052199781,384.9967651,0.3803704679,
383.9909058,-0.0004075644829,383.9909058,0.3179228902,383.9909058,0.4987035692,383.9909058,0.417291671,383.9909058,0.2980275452,383.9909058,0.373346746,
382.9848938,0.000311986194,382.9848938,0.3108716607,382.9848938,0.4874680638,382.9848938,0.4086855948,382.9848938,0.2918768227,382.9848938,0.3640574217,
382.017395,0.0002113585797,382.017395,0.305144757,382.017395,0.4788936675,382.017395,0.4056976438,382.017395,0.2862484455,382.017395,0.3587483168,
381.0110779,0.0004530335718,381.0110779,0.2976167202,381.0110779,0.4780518413,381.0110779,0.40140751,381.0110779,0.2794570327,381.0110779,0.3503285944,
380.0045776,-0.000111347159,380.0045776,0.2926378846,380.0045776,0.4685252011,380.0045776,0.3933796287,380.0045776,0.2766578794,380.0045776,0.3435716629,
378.9979858,-0.0002749254927,378.9979858,0.2878078818,378.9979858,0.4667399824,378.9979858,0.3892698288,378.9979858,0.2718300521,378.9979858,0.3370527923,
377.9912109,0.0004465035454,377.9912109,0.2862989604,377.9912109,0.4578084052,377.9912109,0.3876583278,377.9912109,0.2681699097,377.9912109,0.3343803585,
376.9842834,0.0003006401239,376.9842834,0.2797611058,376.9842834,0.4529408514,376.9842834,0.3880439699,376.9842834,0.2635521293,376.9842834,0.3306158185,
376.0158997,0.00047778117,376.0158997,0.2784977555,376.0158997,0.4485217929,376.0158997,0.3798850477,376.0158997,0.2603124976,376.0158997,0.3244272172,
375.008667,3.502512845E-005,375.008667,0.2748494446,375.008667,0.4467362165,375.008667,0.3761693835,375.008667,0.2570297122,375.008667,0.3207443357,
374.0012817,0.0001515887998,374.0012817,0.2713778019,374.0012817,0.4442183971,374.0012817,0.3789182305,374.0012817,0.2540201545,374.0012817,0.3190285563,
372.9937439,-2.024235619E-005,372.9937439,0.2699972391,372.9937439,0.4415955245,372.9937439,0.3704210222,372.9937439,0.2500652373,372.9937439,0.3158543408,
371.9860535,-0.0003374736407,371.9860535,0.267596215,371.9860535,0.4375397265,371.9860535,0.372210741,371.9860535,0.2506670654,371.9860535,0.3105160892,
371.0169373,0.0005148663768,371.0169373,0.2640817463,371.0169373,0.4369398355,371.0169373,0.3690423965,371.0169373,0.2496404052,371.0169373,0.3095090091,
370.0089722,0.000260283734,370.0089722,0.2641398609,370.0089722,0.4363718927,370.0089722,0.3662436604,370.0089722,0.247969836,370.0089722,0.3117865324,
369.0007935,6.606601528E-005,369.0007935,0.2622749805,369.0007935,0.4305685461,369.0007935,0.3663185537,369.0007935,0.2467531115,369.0007935,0.3084060252,
367.9925232,-0.0004005817755,367.9925232,0.2640547156,367.9925232,0.4312448502,367.9925232,0.3686887026,367.9925232,0.2459776253,367.9925232,0.3049578965,
366.9840393,-0.0002779263596,366.9840393,0.2588023245,366.9840393,0.4313697517,366.9840393,0.3648060858,366.9840393,0.2440022826,366.9840393,0.3059238493,
366.0142517,-0.0001319466246,366.0142517,0.2609733343,366.0142517,0.4296775162,366.0142517,0.3647809327,366.0142517,0.2417910695,366.0142517,0.30348441,
365.0055542,-0.0003692357568,365.0055542,0.2578109205,365.0055542,0.4292603135,365.0055542,0.3665466011,365.0055542,0.2417180836,365.0055542,0.3025172949,
363.9966431,3.202212247E-005,363.9966431,0.2583740652,363.9966431,0.4277534783,363.9966431,0.3644642532,363.9966431,0.2423245907,363.9966431,0.3022150397,
362.9876099,-1.03542643E-005,362.9876099,0.2560661733,362.9876099,0.4230252504,362.9876099,0.3598952293,362.9876099,0.2411300987,362.9876099,0.2992376387,
362.0172424,0.0009460227448,362.0172424,0.256213218,362.0172424,0.428245306,362.0172424,0.3677989841,362.0172424,0.2393755317,362.0172424,0.2980722785,
361.0079041,0.0001407648233,361.0079041,0.253580898,361.0079041,0.4187164605,361.0079041,0.3586339653,361.0079041,0.2382265627,361.0079041,0.296266228,
359.9984436,0.0003342646814,359.9984436,0.2526202202,359.9984436,0.4205521941,359.9984436,0.3619662225,359.9984436,0.2349511534,359.9984436,0.2951530218,
358.9888,-0.0002040887775,358.9888,0.2503573,358.9888,0.4166296422,358.9888,0.3558339477,358.9888,0.2349978387,358.9888,0.2925490141,
358.0178833,0.0002540156129,358.0178833,0.2463610917,358.0178833,0.4167838097,358.0178833,0.3558973074,358.0178833,0.2314709127,358.0178833,0.2879997492,
357.0079651,-8.795161557E-005,357.0079651,0.245011583,357.0079651,0.4064242244,357.0079651,0.3543423116,357.0079651,0.229763791,357.0079651,0.2853627503,
355.9979248,0.00023461612,355.9979248,0.2413150966,355.9979248,0.4111263454,355.9979248,0.350248009,355.9979248,0.225244537,355.9979248,0.2809239924,
354.9877319,-7.817491678E-006,354.9877319,0.2384676933,354.9877319,0.4018349349,354.9877319,0.3491021395,354.9877319,0.2218297869,354.9877319,0.2778089046,
354.0162048,9.806711751E-005,354.0162048,0.2344882488,354.0162048,0.3964699507,354.0162048,0.3437094688,354.0162048,0.2193455398,354.0162048,0.2730798423,
353.0057678,-6.564185605E-005,353.0057678,0.2305379808,353.0057678,0.3932131827,353.0057678,0.3398665488,353.0057678,0.2160862982,353.0057678,0.2702927887,
351.9951172,-0.0001999489614,351.9951172,0.2267036289,351.9951172,0.3895618618,351.9951172,0.3377383351,351.9951172,0.211628288,351.9951172,0.2646529078,
350.984375,-0.0003625628015,350.984375,0.2227525711,350.984375,0.3862448037,350.984375,0.3332685828,350.984375,0.2094252855,350.984375,0.2588680387,
350.0123291,-0.0001959643268,350.0123291,0.2194475979,350.0123291,0.3821796775,350.0123291,0.3296873569,350.0123291,0.2047991753,350.0123291,0.2562734187,
349.0012512,0.0002457014343,349.0012512,0.2142065316,349.0012512,0.3778802454,349.0012512,0.3243699372,349.0012512,0.2006308585,349.0012512,0.2484482527,
347.9900513,0.0004255666572,347.9900513,0.2100558579,347.9900513,0.3728562295,347.9900513,0.322912544,347.9900513,0.1971981972,347.9900513,0.2479311675,
347.0176392,-0.000136966948,347.0176392,0.2066492885,347.0176392,0.3718431294,347.0176392,0.3153290749,347.0176392,0.1940515339,347.0176392,0.2407096773,
346.0061646,-0.000628884125,346.0061646,0.20271869,346.0061646,0.3668266237,346.0061646,0.3138198555,346.0061646,0.1891682595,346.0061646,0.2346081883,
344.9945374,3.422259761E-005,344.9945374,0.1987118274,344.9945374,0.3600801229,344.9945374,0.3132188618,344.9945374,0.1852156818,344.9945374,0.2310988754,
343.9827881,0.0001387191733,343.9827881,0.193647325,343.9827881,0.3569845855,343.9827881,0.3098657727,343.9827881,0.1838252693,343.9827881,0.2265279293,
343.0098267,-0.0001973615435,343.0098267,0.1922536045,343.0098267,0.3487588763,343.0098267,0.3057894409,343.0098267,0.1808986068,343.0098267,0.2210707366,
341.9977722,0.0001560168603,341.9977722,0.1882179081,341.9977722,0.347778976,341.9977722,0.3002468646,341.9977722,0.1747284681,341.9977722,0.2187198848,
340.9856262,-0.0001706585463,340.9856262,0.183399111,340.9856262,0.3407037854,340.9856262,0.2962234318,340.9856262,0.1730210483,340.9856262,0.2134961337,
340.0122375,-0.0002901365515,340.0122375,0.1790155768,340.0122375,0.3343967795,340.0122375,0.2958730757,340.0122375,0.1693959683,340.0122375,0.2087471485,
338.9998169,-0.0005472985213,338.9998169,0.1758784354,338.9998169,0.335314095,338.9998169,0.2907846868,338.9998169,0.1658049524,338.9998169,0.2050236166,
337.9872437,0.0003121934133,337.9872437,0.1763405651,337.9872437,0.3334442973,337.9872437,0.2886656821,337.9872437,0.1634590775,337.9872437,0.2027442902,
337.0134583,0.0008746091626,337.0134583,0.1728814989,337.0134583,0.3273431659,337.0134583,0.2881026566,337.0134583,0.1608197391,337.0134583,0.1996040195,
336.0006104,0.0006541648763,336.0006104,0.1667994559,336.0006104,0.3234290481,336.0006104,0.2816605866,336.0006104,0.1590628177,336.0006104,0.1943695694,
334.9876099,0.0001476009784,334.9876099,0.1650558412,334.9876099,0.3164950311,334.9876099,0.2812969983,334.9876099,0.1539929509,334.9876099,0.1926978379,
334.0134583,0.0008184048347,334.0134583,0.1619806588,334.0134583,0.3163063228,334.0134583,0.2798205912,334.0134583,0.1517062932,334.0134583,0.1879444569,
333.0002136,0.0007449637051,333.0002136,0.1603115201,333.0002136,0.3153914809,333.0002136,0.2774643302,333.0002136,0.148944065,333.0002136,0.1865298748,
331.9868164,0.0008840248338,331.9868164,0.1558770835,331.9868164,0.310171634,331.9868164,0.2740102708,331.9868164,0.1472697556,331.9868164,0.1806527823,
331.0122681,0.0001801778271,331.0122681,0.1500658393,331.0122681,0.3069754541,331.0122681,0.2699365914,331.0122681,0.1428397745,331.0122681,0.1769470274,
329.9985962,1.918192538E-005,329.9985962,0.1487162858,329.9985962,0.3022976816,329.9985962,0.2636482716,329.9985962,0.1402698457,329.9985962,0.1750281304,
328.9848022,0.0002805909899,328.9848022,0.1459635943,328.9848022,0.301620692,328.9848022,0.2620961666,328.9848022,0.1371411234,328.9848022,0.1717863679,
328.0098877,0.0002319743362,328.0098877,0.1427177936,328.0098877,0.2980328202,328.0098877,0.2591471076,328.0098877,0.1364581883,328.0098877,0.1685361564,
326.9958801,0.000636717712,326.9958801,0.1421356797,326.9958801,0.2951141,326.9958801,0.2611771822,326.9958801,0.1337427944,326.9958801,0.1652533114,
325.9816589,0.0002541710273,325.9816589,0.1391196698,325.9816589,0.2912980616,325.9816589,0.2562477887,325.9816589,0.1305485517,325.9816589,0.1617913246,
325.0063477,9.975009016E-005,325.0063477,0.1377240419,325.0063477,0.2897779942,325.0063477,0.2555808723,325.0063477,0.1298680305,325.0063477,0.1614016593,
323.9918823,0.0008333435399,323.9918823,0.1339955181,323.9918823,0.291205883,323.9918823,0.2581420541,323.9918823,0.1282914579,323.9918823,0.1590516567,
323.0163574,-3.799893966E-005,323.0163574,0.1326675564,323.0163574,0.281701684,323.0163574,0.2527167499,323.0163574,0.1245021373,323.0163574,0.1553262174,
322.0016479,0.0003579433251,322.0016479,0.1314810663,322.0016479,0.2819729745,322.0016479,0.2527324557,322.0016479,0.125043124,322.0016479,0.152737394,
320.9867859,-0.0004416488518,320.9867859,0.1287496388,320.9867859,0.2798485458,320.9867859,0.2489481866,320.9867859,0.1227018833,320.9867859,0.1524249166,
320.0108643,-0.001323807868,320.0108643,0.1275909543,320.0108643,0.2776779532,320.0108643,0.2498481125,320.0108643,0.1198367774,320.0108643,0.149384439,
318.9957581,0.0008533922955,318.9957581,0.1260837168,318.9957581,0.27747944,318.9957581,0.2488268316,318.9957581,0.1200897843,318.9957581,0.1490546316,
317.9805298,0.0001803331979,317.9805298,0.1249673143,317.9805298,0.2741669118,317.9805298,0.2447166145,317.9805298,0.1202772781,317.9805298,0.1484422982,
317.0042419,0.001172974473,317.0042419,0.1250018626,317.0042419,0.2764506042,317.0042419,0.2473676503,317.0042419,0.1183161214,317.0042419,0.1482562274,
315.9887695,0.000629770162,315.9887695,0.1253841668,315.9887695,0.2775250077,315.9887695,0.2452913523,315.9887695,0.1185866818,315.9887695,0.1471728235,
315.012207,0.0005100458511,315.012207,0.1254092902,315.012207,0.2801796794,315.012207,0.2487339228,315.012207,0.119517304,315.012207,0.1466169357,
313.99646,1.698152664E-005,313.99646,0.1255422682,313.99646,0.2742478549,313.99646,0.244404763,313.99646,0.117805548,313.99646,0.1473707408,
312.9806213,0.0003772705968,312.9806213,0.1259974837,312.9806213,0.278010875,312.9806213,0.2466744334,312.9806213,0.1190695316,312.9806213,0.1501420587,
312.0037231,-0.0003673218307,312.0037231,0.1262894869,312.0037231,0.2814619243,312.0037231,0.2508560419,312.0037231,0.120878391,312.0037231,0.1508206129,
310.9876099,0.0006374436198,310.9876099,0.1285429001,310.9876099,0.2833904624,310.9876099,0.2545907199,310.9876099,0.1218113303,310.9876099,0.154306069,
310.010437,0.0006486169877,310.010437,0.1324543059,310.010437,0.2887548506,310.010437,0.2553839982,310.010437,0.1270159483,310.010437,0.157101959,
308.9940796,-0.0001897544571,308.9940796,0.1355697066,308.9940796,0.2947333455,308.9940796,0.2602565587,308.9940796,0.1311029941,308.9940796,0.162109226,
308.0166931,0.001463726745,308.0166931,0.1432491988,308.0166931,0.3003960848,308.0166931,0.2668397129,308.0166931,0.1364664435,308.0166931,0.1702269912,
307.0000916,0.0007822532207,307.0000916,0.1522040218,307.0000916,0.3109075129,307.0000916,0.2750638425,307.0000916,0.1470818967,307.0000916,0.1801994145,
305.9833374,-0.0003448194766,305.9833374,0.1648532152,305.9833374,0.3281571865,305.9833374,0.287391454,305.9833374,0.1575365961,305.9833374,0.1900817752,
305.0056152,1.799112033E-005,305.0056152,0.1808768958,305.0056152,0.3409489393,305.0056152,0.2989002168,305.0056152,0.168110162,305.0056152,0.2097083926,
303.9886475,0.002165626269,303.9886475,0.2069547623,303.9886475,0.3686658442,303.9886475,0.3225967884,303.9886475,0.1852122247,303.9886475,0.227157563,
303.0106506,0.002229810925,303.0106506,0.2295790762,303.0106506,0.3962710798,303.0106506,0.342338115,303.0106506,0.2105149925,303.0106506,0.2594655454,
301.9934387,-0.0001592730405,301.9934387,0.2482270449,301.9934387,0.4240588844,301.9934387,0.3700788915,301.9934387,0.2318890989,301.9934387,0.2878462076,
301.0151978,0.0008255888242,301.0151978,0.2859976888,301.0151978,0.4670836627,301.0151978,0.3986033499,301.0151978,0.2691574097,301.0151978,0.3238067031,
299.9977722,0.0004769519146,299.9977722,0.321816057,299.9977722,0.5077617168,299.9977722,0.4340503514,299.9977722,0.3014512956,299.9977722,0.3642359972,
299.0193176,0.002393606817,299.0193176,0.353777647,299.0193176,0.5561772585,299.0193176,0.4745963514,299.0193176,0.3333695531,299.0193176,0.4128151536,
298.0016174,0.001390877645,298.0016174,0.4066069126,298.0016174,0.6096205711,298.0016174,0.517401576,298.0016174,0.3901985586,298.0016174,0.4721510708,
296.9837952,-0.003002413781,296.9837952,0.4694442749,296.9837952,0.684392035,296.9837952,0.5585278869,296.9837952,0.4343835711,296.9837952,0.5325331092,
296.0050049,-0.00263186032,296.0050049,0.5362485647,296.0050049,0.7327637672,296.0050049,0.6060682535,296.0050049,0.4930904508,296.0050049,0.6110740304,
294.9869385,0.003524921369,294.9869385,0.6070915461,294.9869385,0.8345475793,294.9869385,0.6727949381,294.9869385,0.5327892303,294.9869385,0.677144587,
294.0079346,0.01598197222,294.0079346,0.687253654,294.0079346,0.9152469635,294.0079346,0.7875077724,294.0079346,0.631921649,294.0079346,0.7858338356,
292.9896545,-0.005018040072,292.9896545,0.7460104823,292.9896545,0.9982492924,292.9896545,0.8703790903,292.9896545,0.6947512031,292.9896545,0.8633236885,
292.010376,0.00118527771,292.010376,0.8517420888,292.010376,1.127223849,292.010376,0.9430672526,292.010376,0.7839480042,292.010376,0.9698389769,
290.9918518,-0.002204075688,290.9918518,0.9087777138,290.9918518,1.208908558,290.9918518,0.998842001,290.9918518,0.8576856852,290.9918518,1.075086474,
290.0123901,-0.001338156406,290.0123901,0.964820981,290.0123901,1.311496615,290.0123901,1.049209237,290.0123901,0.907145381,290.0123901,1.107074857,
288.9936218,0.01294653397,288.9936218,1.045533657,288.9936218,1.310236216,288.9936218,1.116381645,288.9936218,0.9869033098,288.9936218,1.220346332,
288.013916,-0.01867898926,288.013916,1.063558936,288.013916,1.478377223,288.013916,1.147115231,288.013916,0.9517217278,288.013916,1.272191763,
286.9949341,0.01009979378,286.9949341,1.157063007,286.9949341,1.632597566,286.9949341,1.247023344,286.9949341,1.102913618,286.9949341,1.324021935,
286.0150146,-0.01139843743,286.0150146,1.218560457,286.0150146,2.001479864,286.0150146,1.232878804,286.0150146,1.226428151,286.0150146,1.386639357,
284.9957886,-0.006755913142,284.9957886,1.376689792,284.9957886,1.800094247,284.9957886,1.325306177,284.9957886,1.081261396,284.9957886,1.290777564,
284.015625,-0.008117502555,284.015625,1.258733273,284.015625,1.126789331,284.015625,1.031186581,284.015625,0.9885129333,284.015625,10,
282.9962158,-0.008444922045,282.9962158,1.001976848,282.9962158,1.447597146,282.9962158,1.058698416,282.9962158,1.262490869,282.9962158,1.204608679,
282.0158691,-0.03000915982,282.0158691,0.7483664155,282.0158691,10,282.0158691,10,282.0158691,1.60424614,282.0158691,0.8448837996,
280.9961548,-0.1252417415,280.9961548,0.776950717,280.9961548,0.2720733583,280.9961548,10,280.9961548,0.9300218821,280.9961548,10,
280.0155945,0.1416886598,280.0155945,0.7411954403,280.0155945,10,280.0155945,-0.01332379691,280.0155945,10,280.0155945,10,
278.995697,-0.1064945981,278.995697,-0.4366443753,278.995697,10,278.995697,10,278.995697,-0.1379825026,278.995697,-0.4720822573,
278.0149231,0.3769829869,278.0149231,0.6268094778,278.0149231,-0.3263627887,278.0149231,10,278.0149231,10,278.0149231,10,
276.9947815,-0.1135472581,276.9947815,-0.2147798538,276.9947815,10,276.9947815,10,276.9947815,10,276.9947815,0.04688693583,
276.0137939,10,276.0137939,10,276.0137939,-0.7187588215,276.0137939,10,276.0137939,10,276.0137939,-0.2401154637,
274.9934387,10,274.9934387,10,274.9934387,10,274.9934387,10,274.9934387,-0.9290351868,274.9934387,10,
274.0122375,-0.6282640696,274.0122375,10,274.0122375,10,274.0122375,10,274.0122375,10,274.0122375,10,
272.9916687,10,272.9916687,-0.3243564367,272.9916687,10,272.9916687,-0.5310409665,272.9916687,10,272.9916687,-0.6711784601,
272.0102539,10,272.0102539,10,272.0102539,10,272.0102539,10,272.0102539,10,272.0102539,10,
270.9894409,10,270.9894409,10,270.9894409,-0.8273778558,270.9894409,10,270.9894409,10,270.9894409,-0.827500701,
270.0078125,0.3985508084,270.0078125,10,270.0078125,10,270.0078125,-0.5440278053,270.0078125,-0.6657184958,270.0078125,10,
268.9868164,-0.2689494491,268.9868164,10,268.9868164,10,268.9868164,10,268.9868164,0.1272485405,268.9868164,0.1852359772,
268.0049744,10,268.0049744,-0.342322886,268.0049744,-0.39754951,268.0049744,-0.82601583,268.0049744,10,268.0049744,10,
266.9837646,-0.6045155525,266.9837646,-0.6282669306,266.9837646,-0.8341717124,266.9837646,10,266.9837646,10,266.9837646,10,
266.001709,-0.2779625952,266.001709,-0.586172998,266.001709,-0.6205181479,266.001709,10,266.001709,10,266.001709,-0.3631227016,
265.0195618,0.6056984663,265.0195618,0.2128812671,265.0195618,-0.3533719182,265.0195618,10,265.0195618,-0.3867980838,265.0195618,-0.1052026451,
263.9980469,10,263.9980469,-1.186846256,263.9980469,-1.516311288,263.9980469,10,263.9980469,10,263.9980469,-1.10631144,
263.0157166,-0.05114083365,263.0157166,-0.4028568566,263.0157166,10,263.0157166,10,263.0157166,10,263.0157166,-0.08825741708,
261.9939575,-0.07559209317,261.9939575,10,261.9939575,10,261.9939575,-0.3289654553,261.9939575,10,261.9939575,10,
261.0113831,-0.1886102557,261.0113831,-0.6559846997,261.0113831,10,261.0113831,10,261.0113831,0.5557636023,261.0113831,-0.5052191019,
259.9894409,-0.2386710793,259.9894409,10,259.9894409,-0.3743143082,259.9894409,-0.5857242346,259.9894409,10,259.9894409,10,
259.0067139,3.974304438,259.0067139,10,259.0067139,3.271512508,259.0067139,3.595422745,259.0067139,10,259.0067139,10,
257.9845276,0.3553867936,257.9845276,0.06955657899,257.9845276,10,257.9845276,-0.2663239539,257.9845276,10,257.9845276,-0.1572276503,
257.0015869,10,257.0015869,10,257.0015869,10,257.0015869,10,257.0015869,10,257.0015869,-0.8942250013,
256.0185242,-0.2351875007,256.0185242,10,256.0185242,10,256.0185242,10,256.0185242,-0.05085992441,256.0185242,-0.2206659913,
254.9960938,10,254.9960938,10,254.9960938,10,254.9960938,-0.8436286449,254.9960938,-1.01291883,254.9960938,-0.2903335392,
254.0128326,0.04274309799,254.0128326,-0.4977784157,254.0128326,0.02466339432,254.0128326,10,254.0128326,10,254.0128326,-0.4927573502,
252.9901428,-0.6171193719,252.9901428,-1.076528668,252.9901428,10,252.9901428,-0.7601580024,252.9901428,-0.8659938574,252.9901428,-1.014081478,
252.0067139,10,252.0067139,10,252.0067139,-0.3266774416,252.0067139,10,252.0067139,-0.3280417025,252.0067139,-0.1406699121,
250.9838104,0.404622823,250.9838104,10,250.9838104,10,250.9838104,-0.2027725726,250.9838104,10,250.9838104,10,
250.0001678,4.076767921,250.0001678,3.654200554,250.0001678,10,250.0001678,10,250.0001678,3.693924665,250.0001678,3.260049582,
249.0164642,10,249.0164642,10,249.0164642,-1.014092565,249.0164642,10,249.0164642,10,249.0164642,-0.8134425879,
247.9933014,10,247.9933014,-0.3467109799,247.9933014,10,247.9933014,-0.9401432872,247.9933014,10,247.9933014,10,
247.0093842,-0.6136795282,247.0093842,10,247.0093842,-0.9230995178,247.0093842,10,247.0093842,-0.9374031425,247.0093842,-0.975672245,
245.9859924,0.3025898933,245.9859924,0.3325683475,245.9859924,0.5927516818,245.9859924,10,245.9859924,10,245.9859924,-0.5433657169,
245.0018921,-0.02084715478,245.0018921,0.3625129163,245.0018921,0.2159064561,245.0018921,0.04375412688,245.0018921,10,245.0018921,10,
244.0176697,10,244.0176697,10,244.0176697,-0.1712319851,244.0176697,10,244.0176697,-0.2480857372,244.0176697,10,
242.9940338,0.5172881484,242.9940338,10,242.9940338,0.7810411453,242.9940338,0.0248882845,242.9940338,-0.02885395102,242.9940338,0.3481028378,
242.0096436,0.0383875519,242.0096436,10,242.0096436,-0.3415245116,242.0096436,0.05760439113,242.0096436,-0.5817905068,242.0096436,-0.2309263796,
240.9857635,-0.07759843022,240.9857635,-0.4667724073,240.9857635,0.3614864349,240.9857635,0.284262538,240.9857635,10,240.9857635,0.5267293453,
240.0011749,0.06129548699,240.0011749,10,240.0011749,-0.09371694177,240.0011749,0.2245730907,240.0011749,-0.1990129352,240.0011749,0.5330364108,
239.0165253,0.3181748092,239.0165253,0.1548969448,239.0165253,-0.02415390313,239.0165253,0.08099587262,239.0165253,-0.03732252866,239.0165253,-0.2190720588,
237.9924011,0.3542300761,237.9924011,-0.04896112159,237.9924011,-0.6325801015,237.9924011,-0.3710431755,237.9924011,0.9402604699,237.9924011,10,
237.0075378,0.3643248975,237.0075378,0.3755548,237.0075378,-0.3738534451,237.0075378,-0.3760911822,237.0075378,0.06450856477,237.0075378,-0.4448209405,
235.9832001,0.2787521482,235.9832001,-0.4078305662,235.9832001,-0.5500905514,235.9832001,-0.2267711461,235.9832001,10,235.9832001,-0.5461574197,
234.9981842,0.01152084488,234.9981842,-0.8510265946,234.9981842,10,234.9981842,10,234.9981842,-0.5617450476,234.9981842,10,
234.013031,0.004401461687,234.013031,10,234.013031,-0.7548863888,234.013031,-0.5858507752,234.013031,10,234.013031,-0.4671977162,
232.9884338,-0.1348391771,232.9884338,-0.3831361234,232.9884338,10,232.9884338,-0.2245277911,232.9884338,10,232.9884338,-0.5020951629,
232.0031281,0.5071448088,232.0031281,-0.1637630463,232.0031281,-0.4103156626,232.0031281,10,232.0031281,10,232.0031281,-0.3007493913,
231.017746,-0.03830071911,231.017746,-0.740914762,231.017746,-1.237387419,231.017746,-0.8426664472,231.017746,10,231.017746,-0.8921425939,
229.9928284,0.1184069589,229.9928284,0.07647243887,229.9928284,10,229.9928284,-0.5808650255,229.9928284,10,229.9928284,10,
229.0072784,-0.03686140105,229.0072784,10,229.0072784,10,229.0072784,10,229.0072784,-0.005267406348,229.0072784,-0.4810658395,
227.982193,-0.0008525195299,227.982193,-0.6014289856,227.982193,-0.4598197043,227.982193,-0.3236658871,227.982193,-0.4681023657,227.982193,-0.1604863256,
226.9964294,-0.2766724825,226.9964294,-0.1391422898,226.9964294,-0.508238256,226.9964294,-0.0202015806,226.9964294,10,226.9964294,-0.02112251334,
226.0106049,0.4602103829,226.0106049,10,226.0106049,0.6113791466,226.0106049,-0.584335804,226.0106049,-0.4026099145,226.0106049,-0.4598300457,
224.9852905,-0.1645700485,224.9852905,10,224.9852905,-0.1980841458,224.9852905,10,224.9852905,10,224.9852905,-0.01487140078,
223.9992676,0.8636961579,223.9992676,-0.04061584547,223.9992676,-0.3528887928,223.9992676,-0.1346948594,223.9992676,-0.008938376792,223.9992676,10,
223.0131836,0.1974114329,223.0131836,-0.502556026,223.0131836,10,223.0131836,0.4071601033,223.0131836,-0.6890417933,223.0131836,-0.651008904,
221.9875793,-0.4402081072,221.9875793,-0.743729353,221.9875793,10,221.9875793,10,221.9875793,10,221.9875793,10,
221.0013275,10,221.0013275,-1.059779763,221.0013275,10,221.0013275,-0.6768542528,221.0013275,10,221.0013275,10,
220.0149689,10,220.0149689,10,220.0149689,10,220.0149689,10,220.0149689,10,220.0149689,-0.2634593844,
218.98909,0.5745481849,218.98909,10,218.98909,10,218.98909,0.09383624047,218.98909,10,218.98909,-0.1895967722,
218.0025787,10,218.0025787,10,218.0025787,-0.9523311853,218.0025787,10,218.0025787,10,218.0025787,-1.18940711,
217.015976,0.2920199633,217.015976,10,217.015976,10,217.015976,10,217.015976,-0.4407584965,217.015976,-0.4306749403,
215.9898376,10,215.9898376,-0.1654455066,215.9898376,10,215.9898376,0.6079895496,215.9898376,10,215.9898376,-0.3716214001,
215.003067,-0.3644254804,215.003067,-0.3539399803,215.003067,-0.4742202759,215.003067,10,215.003067,-0.8054515123,215.003067,10,
214.0162354,-0.1525193155,214.0162354,-0.558613658,214.0162354,10,214.0162354,-0.5690762997,214.0162354,10,214.0162354,-1.082808852,
212.9898224,0.5184860826,212.9898224,0.04726919532,212.9898224,10,212.9898224,-0.366512835,212.9898224,0.06984351575,212.9898224,0.1626502275,
212.0028229,10,212.0028229,10,212.0028229,10,212.0028229,10,212.0028229,-0.1829155087,212.0028229,-0.527616024,
211.0157318,0.0258111842,211.0157318,-0.5802688599,211.0157318,-0.5192586184,211.0157318,-0.4807246029,211.0157318,10,211.0157318,-0.498589009,
209.98909,-0.3083751202,209.98909,10,209.98909,10,209.98909,-0.6334598064,209.98909,10,209.98909,0.0377817452,
209.0018311,10,209.0018311,10,209.0018311,0.2193629146,209.0018311,0.2244795412,209.0018311,0.3385795057,209.0018311,10,
208.0145111,-0.1493242532,208.0145111,-0.635258019,208.0145111,10,208.0145111,-0.2347024232,208.0145111,-0.2765774429,208.0145111,0.1811861694,
206.9876099,0.1142336205,206.9876099,10,206.9876099,10,206.9876099,-0.3811396658,206.9876099,-0.06819956005,206.9876099,-0.3298722208,
206.0001221,0.8105304241,206.0001221,0.3273100555,206.0001221,0.420850873,206.0001221,-0.2518467903,206.0001221,-0.1538165957,206.0001221,-0.2886547744,
205.0125427,0.05035825074,205.0125427,10,205.0125427,0.03413041681,205.0125427,10,205.0125427,10,205.0125427,0.2497505248,
203.9854279,-0.182471171,203.9854279,-0.3872001171,203.9854279,10,203.9854279,-0.1215290725,203.9854279,10,203.9854279,10,
202.9976807,-0.3468722999,202.9976807,10,202.9976807,0.8069918752,202.9976807,-0.1937127858,202.9976807,-0.7591112256,202.9976807,-0.5472791195,
202.0098877,0.4902211428,202.0098877,-0.4135579765,202.0098877,-0.3582921028,202.0098877,-0.1772186309,202.0098877,-0.2207083702,202.0098877,10,
200.9824982,-0.6841166019,200.9824982,-0.1993914098,200.9824982,-0.4847483635,200.9824982,-1.010499477,200.9824982,10,200.9824982,0.7461920977,
199.9945374,-0.002605615417,199.9945374,0.01180898119,199.9945374,-0.3090322316,199.9945374,0.353402555,199.9945374,10,199.9945374,-0.2361425161,

blank,
blank
Collection Time: 27/04/2022 08:22:32
Operator Name  :
Scan Version 5.0.0.999
Parameter List :
Instrument  Cary 60
Instrument Version  2.00
Start (nm)  800.0
Stop (nm)  200.0
X Mode  Nanometers
Y Mode  Abs
UV-Vis Scan Rate (nm/min)  4800.000
UV-Vis Data Interval (nm)  1.00
UV-Vis Ave. Time (sec)  0.0125
Beam Mode  Dual Beam
Baseline Correction  On
Baseline Type  Baseline correction
Baseline File Name
Baseline Std Ref File Name
Cycle Mode  Off
Method Log     :
Method Name    :
Date/Time stamp: 27/04/2022 08:21:43
Method Modifications:
Common Interval nm Changed: 27/04/2022 08:22:09, Old:     5.00, New:     1.00
Baseline Correction Changed: 27/04/2022 08:22:09, Old:0, New:1
Storage Changed: 27/04/2022 08:22:09, Old:1, New:0
End Method Modifications
<Current Wavelength> , 200.0

bm3-1yqp-heme-10in1000-tube78,
bm3-1yqp-heme-10in1000-tube78
Collection Time: 27/04/2022 08:23:14
Operator Name  :
Scan Version 5.0.0.999
Parameter List :
Instrument  Cary 60
Instrument Version  2.00
Start (nm)  800.0
Stop (nm)  200.0
X Mode  Nanometers
Y Mode  Abs
UV-Vis Scan Rate (nm/min)  4800.000
UV-Vis Data Interval (nm)  1.00
UV-Vis Ave. Time (sec)  0.0125
Beam Mode  Dual Beam
Baseline Correction  On
Baseline Type  Baseline correction
Baseline File Name
Baseline Std Ref File Name
Cycle Mode  Off
Method Log     :
Method Name    :
Date/Time stamp: 27/04/2022 08:21:43
Method Modifications:
Common Interval nm Changed: 27/04/2022 08:22:09, Old:     5.00, New:     1.00
Baseline Correction Changed: 27/04/2022 08:22:09, Old:0, New:1
Storage Changed: 27/04/2022 08:22:09, Old:1, New:0
End Method Modifications
<Current Wavelength> , 201.0

bm3-1yqp-heme-10in1000-tube79,
bm3-1yqp-heme-10in1000-tube79
Collection Time: 27/04/2022 08:23:29
Operator Name  :
Scan Version 5.0.0.999
Parameter List :
Instrument  Cary 60
Instrument Version  2.00
Start (nm)  800.0
Stop (nm)  200.0
X Mode  Nanometers
Y Mode  Abs
UV-Vis Scan Rate (nm/min)  4800.000
UV-Vis Data Interval (nm)  1.00
UV-Vis Ave. Time (sec)  0.0125
Beam Mode  Dual Beam
Baseline Correction  On
Baseline Type  Baseline correction
Baseline File Name
Baseline Std Ref File Name
Cycle Mode  Off
Method Log     :
Method Name    :
Date/Time stamp: 27/04/2022 08:21:43
Method Modifications:
Common Interval nm Changed: 27/04/2022 08:22:09, Old:     5.00, New:     1.00
Baseline Correction Changed: 27/04/2022 08:22:09, Old:0, New:1
Storage Changed: 27/04/2022 08:22:09, Old:1, New:0
End Method Modifications
<Current Wavelength> , 236.0

bm3-1yqp-heme-10in1000-tube80,
bm3-1yqp-heme-10in1000-tube80
Collection Time: 27/04/2022 08:23:52
Operator Name  :
Scan Version 5.0.0.999
Parameter List :
Instrument  Cary 60
Instrument Version  2.00
Start (nm)  800.0
Stop (nm)  200.0
X Mode  Nanometers
Y Mode  Abs
UV-Vis Scan Rate (nm/min)  4800.000
UV-Vis Data Interval (nm)  1.00
UV-Vis Ave. Time (sec)  0.0125
Beam Mode  Dual Beam
Baseline Correction  On
Baseline Type  Baseline correction
Baseline File Name
Baseline Std Ref File Name
Cycle Mode  Off
Method Log     :
Method Name    :
Date/Time stamp: 27/04/2022 08:21:43
Method Modifications:
Common Interval nm Changed: 27/04/2022 08:22:09, Old:     5.00, New:     1.00
Baseline Correction Changed: 27/04/2022 08:22:09, Old:0, New:1
Storage Changed: 27/04/2022 08:22:09, Old:1, New:0
End Method Modifications
<Current Wavelength> , 200.0

bm3-1yqp-heme-10in1000-tube81,
bm3-1yqp-heme-10in1000-tube81
Collection Time: 27/04/2022 08:24:28
Operator Name  :
Scan Version 5.0.0.999
Parameter List :
Instrument  Cary 60
Instrument Version  2.00
Start (nm)  800.0
Stop (nm)  200.0
X Mode  Nanometers
Y Mode  Abs
UV-Vis Scan Rate (nm/min)  4800.000
UV-Vis Data Interval (nm)  1.00
UV-Vis Ave. Time (sec)  0.0125
Beam Mode  Dual Beam
Baseline Correction  On
Baseline Type  Baseline correction
Baseline File Name
Baseline Std Ref File Name
Cycle Mode  Off
Method Log     :
Method Name    :
Date/Time stamp: 27/04/2022 08:21:43
Method Modifications:
Common Interval nm Changed: 27/04/2022 08:22:09, Old:     5.00, New:     1.00
Baseline Correction Changed: 27/04/2022 08:22:09, Old:0, New:1
Storage Changed: 27/04/2022 08:22:09, Old:1, New:0
End Method Modifications
<Current Wavelength> , 206.0

bm3-1yqp-heme-10in1000-pooled,
bm3-1yqp-heme-10in1000-pooled
Collection Time: 27/04/2022 08:27:57
Operator Name  :
Scan Version 5.0.0.999
Parameter List :
Instrument  Cary 60
Instrument Version  2.00
Start (nm)  800.0
Stop (nm)  200.0
X Mode  Nanometers
Y Mode  Abs
UV-Vis Scan Rate (nm/min)  4800.000
UV-Vis Data Interval (nm)  1.00
UV-Vis Ave. Time (sec)  0.0125
Beam Mode  Dual Beam
Baseline Correction  On
Baseline Type  Baseline correction
Baseline File Name
Baseline Std Ref File Name
Cycle Mode  Off
Method Log     :
Method Name    :
Date/Time stamp: 27/04/2022 08:21:43
Method Modifications:
Common Interval nm Changed: 27/04/2022 08:22:09, Old:     5.00, New:     1.00
Baseline Correction Changed: 27/04/2022 08:22:09, Old:0, New:1
Storage Changed: 27/04/2022 08:22:09, Old:1, New:0
End Method Modifications
<Current Wavelength> , 258.0

