blank,,bm3-wt-heme-10in1000-tube40,,bm3-wt-heme-10in1000-tube42,,bm3-wt-heme-10in1000-tube43,,bm3-wt-heme-10in1000-spin-n-pool,,bm3-wt-heme-post-dil,,
Wavelength (nm),Abs,Wavelength (nm),Abs,Wavelength (nm),Abs,Wavelength (nm),Abs,Wavelength (nm),Abs,Wavelength (nm),Abs,
799.9969482,0.0003067534999,799.9969482,0.02912740037,799.9969482,0.03895988315,799.9969482,0.02848264948,799.9969482,0.008971988223,799.9969482,0.005653557833,
798.9923096,-0.001638799324,798.9923096,0.0282540936,798.9923096,0.03880723193,798.9923096,0.02769963443,798.9923096,0.009425542317,798.9923096,0.004914768506,
797.9871826,-0.0007810018142,797.9871826,0.02883830667,797.9871826,0.04032882676,797.9871826,0.02870651148,797.9871826,0.01070236415,797.9871826,0.006772530265,
797.0163574,0.001748904004,797.0163574,0.03114831634,797.0163574,0.04094445705,797.0163574,0.02991335653,797.0163574,0.009957538918,797.0163574,0.006894335616,
796.010437,-0.0002303240326,796.010437,0.02865615487,796.010437,0.04004498571,796.010437,0.02878193371,796.010437,0.008890497498,796.010437,0.006059319247,
795.0041504,-0.0007359871524,795.0041504,0.0290492624,795.0041504,0.04120258987,795.0041504,0.02915937454,795.0041504,0.01103567798,795.0041504,0.007012834307,
793.9974365,0.0005615706905,793.9974365,0.02965089865,793.9974365,0.04077350721,793.9974365,0.02914553322,793.9974365,0.01030777674,793.9974365,0.005951499101,
792.9903564,0.0003690058948,792.9903564,0.03085945733,792.9903564,0.04098789394,792.9903564,0.0293478854,792.9903564,0.0104824705,792.9903564,0.007096762769,
791.9828491,0.001123531139,791.9828491,0.03035393357,791.9828491,0.04215794429,791.9828491,0.02997162566,791.9828491,0.01144376397,791.9828491,0.007182865869,
791.0097046,-0.0001723145833,791.0097046,0.02782761864,791.0097046,0.03922652826,791.0097046,0.02823867835,791.0097046,0.009283084422,791.0097046,0.005315725692,
790.0013428,-0.0007424476207,790.0013428,0.0286708381,790.0013428,0.03974592686,790.0013428,0.02873071097,790.0013428,0.009883647785,790.0013428,0.004920423497,
788.9926758,0.001032653148,788.9926758,0.0300864093,788.9926758,0.04078743979,788.9926758,0.0294933673,788.9926758,0.01091658138,788.9926758,0.007051034365,
787.9835815,-0.0008878606604,787.9835815,0.02906703204,787.9835815,0.03975917399,787.9835815,0.02863074467,787.9835815,0.01020965632,787.9835815,0.006728308275,
787.0089111,0.0007640748518,787.0089111,0.0318143107,787.0089111,0.04210603237,787.0089111,0.03014969639,787.0089111,0.01032519247,787.0089111,0.007256140467,
785.9989624,0.0005878538359,785.9989624,0.02954210341,785.9989624,0.04147907346,785.9989624,0.02930714749,785.9989624,0.01087647397,785.9989624,0.006011914928,
784.9887695,0.0004826790246,784.9887695,0.03027862683,784.9887695,0.04154740274,784.9887695,0.02974142693,784.9887695,0.01140419301,784.9887695,0.007141970098,
784.0128784,-0.0002322385699,784.0128784,0.03012269922,784.0128784,0.04127463326,784.0128784,0.03008851781,784.0128784,0.01009862777,784.0128784,0.006847366225,
783.001709,0.0005966670578,783.001709,0.03024984524,783.001709,0.04235318303,783.001709,0.02925957367,783.001709,0.01094286144,783.001709,0.007023988757,
781.9902954,-0.0002951032948,781.9902954,0.03109236434,781.9902954,0.04106607661,781.9902954,0.02953368053,781.9902954,0.01086604316,781.9902954,0.007472087629,
781.0134277,0.0008196237613,781.0134277,0.03186531365,781.0134277,0.04244234413,781.0134277,0.03115118109,781.0134277,0.01043731254,781.0134277,0.007367260288,
780.0010986,0.0002652827534,780.0010986,0.03108113073,780.0010986,0.04178340361,780.0010986,0.03105404787,780.0010986,0.0121231284,780.0010986,0.006812918,
778.9884644,-0.0009134346619,778.9884644,0.0307185743,778.9884644,0.04226606712,778.9884644,0.02971647866,778.9884644,0.01021230593,778.9884644,0.007151496131,
778.010376,0.0003315704816,778.010376,0.03029489145,778.010376,0.04236266017,778.010376,0.02926358767,778.010376,0.01034618728,778.010376,0.006151806563,
776.9969482,5.384314591E-006,776.9969482,0.03239943087,776.9969482,0.04266900942,776.9969482,0.031261269,776.9969482,0.01197419595,776.9969482,0.006571857724,
775.9831543,0.0005726384697,775.9831543,0.03193755075,775.9831543,0.04255413637,775.9831543,0.03107114695,775.9831543,0.01078865398,775.9831543,0.007224555127,
775.0039063,-0.0001775414421,775.0039063,0.02945588529,775.0039063,0.04122339562,775.0039063,0.02842828259,775.0039063,0.008906614967,775.0039063,0.006081841886,
773.9893188,-6.46065746E-005,773.9893188,0.03196290508,773.9893188,0.04293362796,773.9893188,0.03079106659,773.9893188,0.01258403715,773.9893188,0.006991236471,
773.0093384,-0.0002986731124,773.0093384,0.03164916858,773.0093384,0.0427787751,773.0093384,0.03029713966,773.0093384,0.01078440808,773.0093384,0.006102869753,
771.9940186,-6.476186536E-005,771.9940186,0.03117187135,771.9940186,0.04239470884,771.9940186,0.03020200133,771.9940186,0.01133000199,771.9940186,0.006310758647,
771.0132446,-0.0003864091123,771.0132446,0.03138727695,771.0132446,0.04326377437,771.0132446,0.03054338135,771.0132446,0.01077565085,771.0132446,0.007620696444,
769.9971313,-0.0004093230527,769.9971313,0.03158917278,769.9971313,0.04333332926,769.9971313,0.03096157871,769.9971313,0.01063619833,769.9971313,0.006207812577,
769.015686,-6.34159951E-005,769.015686,0.03232865036,769.015686,0.04366323724,769.015686,0.03133911267,769.015686,0.01076132152,769.015686,0.006039501168,
767.9988403,-0.0001815779833,767.9988403,0.03214906901,767.9988403,0.04292013869,767.9988403,0.0301809404,767.9988403,0.01114601642,767.9988403,0.006547496188,
767.0166626,-0.0002125235624,767.0166626,0.03139879555,767.0166626,0.04393020645,767.0166626,0.03152189031,767.0166626,0.0117465565,767.0166626,0.007418446243,
765.9989624,1.85088611E-005,765.9989624,0.03215885535,765.9989624,0.04469976574,765.9989624,0.03207016364,765.9989624,0.01097970922,765.9989624,0.008053114638,
765.0160522,-0.0005096027162,765.0160522,0.03168132901,765.0160522,0.04365152866,765.0160522,0.0307975132,765.0160522,0.01064718142,765.0160522,0.006680147257,
763.9975586,-8.335201528E-006,763.9975586,0.03327841312,763.9975586,0.04447757453,763.9975586,0.03233077005,763.9975586,0.01273320615,763.9975586,0.007530160714,
763.0139771,-0.0007947481936,763.0139771,0.03227129206,763.0139771,0.04505822435,763.0139771,0.03288048133,763.0139771,0.01109226421,763.0139771,0.006570438389,
761.994751,-0.0001560125966,761.994751,0.03277648613,761.994751,0.0446430482,761.994751,0.03061709367,761.994751,0.01126135048,761.994751,0.006840897258,
761.010376,0.0003710008168,761.010376,0.03393405303,761.010376,0.04498641193,761.010376,0.0334491767,761.010376,0.01254683919,761.010376,0.00771636283,
759.9904785,0.000168006547,759.9904785,0.0340180546,759.9904785,0.04673807696,759.9904785,0.03290681168,759.9904785,0.01261700038,759.9904785,0.008245555684,
759.0053101,-0.0001614466601,759.0053101,0.03337975964,759.0053101,0.04540893063,759.0053101,0.0326176472,759.0053101,0.01169852726,759.0053101,0.007510012016,
757.9846191,0.0003002256562,757.9846191,0.03324867785,757.9846191,0.04575255513,757.9846191,0.03279099986,757.9846191,0.01363797858,757.9846191,0.008158082142,
756.9987793,8.882384282E-005,756.9987793,0.03293459862,756.9987793,0.04448391125,756.9987793,0.03247677907,756.9987793,0.01204474363,756.9987793,0.006975032389,
756.0124512,0.0003169598931,756.0124512,0.03394709527,756.0124512,0.0457255207,756.0124512,0.03288271651,756.0124512,0.01331315096,756.0124512,0.007788515184,
754.9906616,-0.0005873177433,754.9906616,0.03370137885,754.9906616,0.04610126093,754.9906616,0.03382109851,754.9906616,0.01289834548,754.9906616,0.007789569441,
754.0037231,-0.001024444588,754.0037231,0.0326436013,754.0037231,0.04555118084,754.0037231,0.0325437896,754.0037231,0.01135840639,754.0037231,0.006920400076,
753.0164185,0.0002513737127,753.0164185,0.03376785293,753.0164185,0.04566432163,753.0164185,0.03347319365,753.0164185,0.01258281153,753.0164185,0.007778553292,
751.9934692,0.0006114944699,751.9934692,0.03539900854,751.9934692,0.04687476531,751.9934692,0.03354768455,751.9934692,0.013529649,751.9934692,0.007184734102,
751.0054321,-0.0007702008006,751.0054321,0.03460887447,751.0054321,0.04627610743,751.0054321,0.03336248547,751.0054321,0.01187162753,751.0054321,0.007423212286,
750.0170288,-0.0001190591356,750.0170288,0.03477716446,750.0170288,0.04768365622,750.0170288,0.03323953971,750.0170288,0.01279918477,750.0170288,0.008525639772,
748.992981,0.0003349641338,748.992981,0.03518826142,748.992981,0.0475182943,748.992981,0.03483653814,748.992981,0.01331971772,748.992981,0.008131626993,
748.0039063,-0.0001446267124,748.0039063,0.03514520079,748.0039063,0.04782177135,748.0039063,0.03438203409,748.0039063,0.01305586565,748.0039063,0.007383057848,
747.0144043,0.001113279839,747.0144043,0.03589678183,747.0144043,0.04770714417,747.0144043,0.03493078798,747.0144043,0.01323980838,747.0144043,0.008232787251,
745.9891968,0.0004266808683,745.9891968,0.03588991985,745.9891968,0.04639505222,745.9891968,0.03434121236,745.9891968,0.01328328438,745.9891968,0.00802292116,
744.9990845,-1.133790647E-005,744.9990845,0.03527492285,744.9990845,0.0466032438,744.9990845,0.03406484053,744.9990845,0.0124145681,744.9990845,0.007733016275,
744.0085449,-1.071665884E-005,744.0085449,0.03555350006,744.0085449,0.04715041444,744.0085449,0.0342868939,744.0085449,0.01302481536,744.0085449,0.007712753024,
743.0176392,-0.0001707620395,743.0176392,0.03582185507,743.0176392,0.04824801534,743.0176392,0.03446368873,743.0176392,0.01376958005,743.0176392,0.007673888467,
741.9910278,-0.000103428014,741.9910278,0.03598493338,741.9910278,0.04751447961,741.9910278,0.03351720423,741.9910278,0.01248710603,741.9910278,0.007175233681,
740.9993896,-0.0003608557454,740.9993896,0.03562896699,740.9993896,0.04813593253,740.9993896,0.03468824551,740.9993896,0.01395289041,740.9993896,0.007967656478,
740.0074463,8.149667701E-005,740.0074463,0.03624936193,740.0074463,0.04804016277,740.0074463,0.03568334505,740.0074463,0.0136608975,740.0074463,0.007864106447,
739.0151367,0.0005084908917,739.0151367,0.03615580872,739.0151367,0.0483327806,739.0151367,0.03517577052,739.0151367,0.01339801308,739.0151367,0.009205871262,
737.9871216,0.0003247832356,737.9871216,0.0361097306,737.9871216,0.04943117127,737.9871216,0.03593454137,737.9871216,0.01458407007,737.9871216,0.00863177795,
736.9940796,0.0004487320257,736.9940796,0.03657609969,736.9940796,0.04912404343,736.9940796,0.03536241874,736.9940796,0.01389245503,736.9940796,0.007870116271,
736.0006714,-1.982819958E-005,736.0006714,0.03583211824,736.0006714,0.04944065586,736.0006714,0.0352807343,736.0006714,0.01292463951,736.0006714,0.008107599802,
735.007019,0.0003138772154,735.007019,0.03653363511,735.007019,0.04910134897,735.007019,0.0357831493,735.007019,0.01388459746,735.007019,0.008695552126,
734.0129395,-0.0001470591669,734.0129395,0.03632469848,734.0129395,0.04940544441,734.0129395,0.03552144766,734.0129395,0.01459820475,734.0129395,0.008752573282,
732.9830322,-0.0003137281456,732.9830322,0.03658522293,732.9830322,0.04900168255,732.9830322,0.035749726,732.9830322,0.0134816356,732.9830322,0.008179843426,
731.9882202,-0.0003266615677,731.9882202,0.03668056056,731.9882202,0.04926583916,731.9882202,0.03664239496,731.9882202,0.01407707389,731.9882202,0.008606930263,
730.993103,-3.178680709E-005,730.993103,0.03707124665,730.993103,0.04953914881,730.993103,0.03612053394,730.993103,0.01437068451,730.993103,0.008354818448,
729.9976807,0.0006745164865,729.9976807,0.03769763187,729.9976807,0.05054717883,729.9976807,0.03675678745,729.9976807,0.01498068776,729.9976807,0.009522162378,
729.0018921,-0.0003411983198,729.0018921,0.03734423593,729.0018921,0.05026771501,729.0018921,0.03630719334,729.0018921,0.01458645239,729.0018921,0.008348564617,
728.0057373,-0.0001194731958,728.0057373,0.03735154495,728.0057373,0.05063998699,728.0057373,0.03659485653,728.0057373,0.01442489773,728.0057373,0.008214057423,
727.0092773,-0.0002647844958,727.0092773,0.03772787005,727.0092773,0.05159017816,727.0092773,0.03689628839,727.0092773,0.01513269264,727.0092773,0.009103188291,
726.0124512,-7.785801427E-005,726.0124512,0.03728471696,726.0124512,0.05026152357,726.0124512,0.03554892167,726.0124512,0.01371211,726.0124512,0.00761152897,
725.0152588,-0.0004802297335,725.0152588,0.03731526434,725.0152588,0.05072411895,725.0152588,0.03604199737,725.0152588,0.01448235568,725.0152588,0.008449775167,
724.0177612,-0.000625316985,724.0177612,0.0379617773,724.0177612,0.05074393004,724.0177612,0.03639233485,724.0177612,0.01406993531,724.0177612,0.008233631961,
722.9842529,-0.0001740223815,722.9842529,0.03760303184,722.9842529,0.05082318932,722.9842529,0.03681040183,722.9842529,0.01416451856,722.9842529,0.008273627609,
721.9860229,0.0008628852665,721.9860229,0.03851428628,721.9860229,0.05153954402,721.9860229,0.03838738054,721.9860229,0.01560292579,721.9860229,0.008638246916,
720.9874878,0.0006118314341,720.9874878,0.03883839771,720.9874878,0.05203040689,720.9874878,0.03783856705,720.9874878,0.0148744341,720.9874878,0.008974736556,
719.9885254,-0.0001887712278,719.9885254,0.03823131323,719.9885254,0.05227568001,719.9885254,0.03751525283,719.9885254,0.01514912397,719.9885254,0.008666027337,
718.9894409,0.000504940399,718.9894409,0.03834901005,718.9894409,0.05276866257,718.9894409,0.03831477091,718.9894409,0.01534151845,718.9894409,0.009333650582,
717.9898071,-7.485577225E-005,717.9898071,0.03877004236,717.9898071,0.05261569843,717.9898071,0.03745881468,717.9898071,0.01528515294,717.9898071,0.008948840201,
716.9898682,-9.861434228E-005,716.9898682,0.03888898715,716.9898682,0.05218336731,716.9898682,0.03797957674,716.9898682,0.01481579896,716.9898682,0.008478467353,
715.989624,-0.000306588714,715.989624,0.03865206242,715.989624,0.05283645168,715.989624,0.0379390344,715.989624,0.01512537524,715.989624,0.008247534744,
714.9890137,3.807992834E-005,714.9890137,0.03933633119,714.9890137,0.05319838226,714.9890137,0.03838783503,714.9890137,0.01529705804,714.9890137,0.008925903589,
713.9880981,-0.0008915805956,713.9880981,0.03897064179,713.9880981,0.05227573961,713.9880981,0.03777042404,713.9880981,0.01441630814,713.9880981,0.007962779142,
712.9868164,0.0006289924495,712.9868164,0.03993630782,712.9868164,0.0536030829,712.9868164,0.03886172548,712.9868164,0.01562404353,712.9868164,0.009493163787,
711.9852905,-0.0002981040161,711.9852905,0.04013923928,711.9852905,0.05387954786,711.9852905,0.03877094761,711.9852905,0.01586607471,711.9852905,0.008777851239,
710.9832764,4.721857476E-005,710.9832764,0.03981877863,710.9832764,0.05376201868,710.9832764,0.03843596578,710.9832764,0.01552345417,710.9832764,0.008597134613,
710.0167847,-0.0001960678346,710.0167847,0.03967231885,710.0167847,0.05321131647,710.0167847,0.03829627857,710.0167847,0.01529716514,710.0167847,0.008422194049,
709.0142212,-0.0001059124697,709.0142212,0.04022942111,709.0142212,0.05346674472,709.0142212,0.03923179582,709.0142212,0.01563593186,709.0142212,0.008802866563,
708.0112915,-0.0004138229706,708.0112915,0.03962459043,708.0112915,0.05406881124,708.0112915,0.03867331147,708.0112915,0.01561572496,708.0112915,0.00875386782,
707.0079956,-2.127774496E-005,707.0079956,0.04123825207,707.0079956,0.0540423952,707.0079956,0.03910836577,707.0079956,0.01607823558,707.0079956,0.009048552252,
706.0043945,0.0002774567693,706.0043945,0.04097685963,706.0043945,0.05465224758,706.0043945,0.03914244473,706.0043945,0.015637381,706.0043945,0.008509219624,
705.0004272,0.0001292678789,705.0004272,0.04164303467,705.0004272,0.05471146479,705.0004272,0.04026588798,705.0004272,0.0164213758,705.0004272,0.009700511582,
703.9962158,-0.0005617761635,703.9962158,0.04012845084,703.9962158,0.05425270274,703.9962158,0.03956072778,703.9962158,0.01583605818,703.9962158,0.008604580536,
702.9915771,0.0001719427528,702.9915771,0.04044678062,702.9915771,0.05418169871,702.9915771,0.0394349359,702.9915771,0.01585227437,702.9915771,0.008649284951,
701.9866943,-0.0004113402683,701.9866943,0.04130754247,701.9866943,0.05517165363,701.9866943,0.04038868099,701.9866943,0.01654113084,701.9866943,0.009564659558,
701.0172729,8.160023572E-005,701.0172729,0.04152831808,701.0172729,0.05533445999,701.0172729,0.04085423797,701.0172729,0.01650219411,701.0172729,0.009599829093,
700.0117188,0.0003084372729,700.0117188,0.04058204591,700.0117188,0.05541838706,700.0117188,0.04032007977,700.0117188,0.01664733514,700.0117188,0.009384144098,
699.0057373,0.0003603786172,699.0057373,0.04165175557,699.0057373,0.05599772185,699.0057373,0.04069620371,699.0057373,0.01644312404,699.0057373,0.00933703687,
697.9995728,0.0006174048176,697.9995728,0.04223251343,697.9995728,0.05697996542,697.9995728,0.04154939577,697.9995728,0.01759524271,697.9995728,0.009521580301,
696.992981,0.00101436046,696.992981,0.04283490777,696.992981,0.05654804781,696.992981,0.04086669534,696.992981,0.01638105139,696.992981,0.009578578174,
695.9860229,-0.0006220083451,695.9860229,0.04245944321,695.9860229,0.05670792237,695.9860229,0.04103381187,695.9860229,0.01661258563,695.9860229,0.01061221771,
695.0147705,-0.0003421812144,695.0147705,0.04180156067,695.0147705,0.05643498525,695.0147705,0.04115725309,695.0147705,0.01707812399,695.0147705,0.01036127191,
694.0072632,-0.0004845737421,694.0072632,0.04178545624,694.0072632,0.05564109981,694.0072632,0.04122328013,694.0072632,0.01639338955,694.0072632,0.009073477238,
692.9993286,0.0001916761103,692.9993286,0.04300167039,692.9993286,0.05696222559,692.9993286,0.04236859456,692.9993286,0.01697781682,692.9993286,0.01047740597,
691.9911499,0.000335404533,691.9911499,0.04177864641,691.9911499,0.05744011328,691.9911499,0.04118704796,691.9911499,0.01738535799,691.9911499,0.009928457439,
690.982605,-2.702411075E-005,690.982605,0.04227707908,690.982605,0.05690541491,690.982605,0.04144037142,690.982605,0.01735906117,690.982605,0.009341717698,
690.0097656,-0.0005840087542,690.0097656,0.04241534323,690.0097656,0.0572803542,690.0097656,0.04108992219,690.0097656,0.01657670923,690.0097656,0.008806115948,
689.0006104,0.0003178406623,689.0006104,0.04371968657,689.0006104,0.05812157318,689.0006104,0.04206134379,689.0006104,0.01775555313,689.0006104,0.009385334328,
687.9911499,-0.0004384939384,687.9911499,0.04337861016,687.9911499,0.05808337033,687.9911499,0.04165161029,687.9911499,0.01684881747,687.9911499,0.009370045736,
687.017334,2.995109753E-005,687.017334,0.04358710349,687.017334,0.05775223672,687.017334,0.04198882729,687.017334,0.01758340746,687.017334,0.009865719825,
686.0071411,-0.0009569845279,686.0071411,0.04271899164,686.0071411,0.05863625929,686.0071411,0.04186575115,686.0071411,0.01734475605,686.0071411,0.009870937094,
684.9967041,0.001438221661,684.9967041,0.04506681114,684.9967041,0.06061016396,684.9967041,0.04379738867,684.9967041,0.01875926182,684.9967041,0.01122269873,
683.9859619,-0.0006916914717,683.9859619,0.043543607,683.9859619,0.05834153295,683.9859619,0.04231722653,683.9859619,0.01720266603,683.9859619,0.01025097445,
683.0109253,-9.421470168E-005,683.0109253,0.04404006153,683.0109253,0.05965389684,683.0109253,0.04287062213,683.0109253,0.01727029867,683.0109253,0.01050578151,
681.9994507,-0.000199793707,681.9994507,0.04464714974,681.9994507,0.05910816416,681.9994507,0.04270910844,681.9994507,0.01782564446,681.9994507,0.01037439518,
680.9877319,-0.0006508547813,680.9877319,0.0441279076,680.9877319,0.05887817964,680.9877319,0.0436261408,680.9877319,0.01738829352,680.9877319,0.009617216885,
680.0118408,0.0001319349394,680.0118408,0.04457388446,680.0118408,0.05972781777,680.0118408,0.04328016192,680.0118408,0.01822966151,680.0118408,0.01018540747,
678.9994507,5.394970867E-005,678.9994507,0.04526956752,678.9994507,0.05954435468,678.9994507,0.04359185323,678.9994507,0.01836282574,678.9994507,0.01030377392,
677.9866943,-0.000627798494,677.9866943,0.04526272789,677.9866943,0.05959305167,677.9866943,0.04283330962,677.9866943,0.01816930436,677.9866943,0.01022879034,
677.0098877,0.0005081539857,677.0098877,0.04605572298,677.0098877,0.06069731712,677.0098877,0.0438074097,677.0098877,0.01964402571,677.0098877,0.01123252697,
675.996582,0.000573312398,675.996582,0.04612699524,675.996582,0.06171093881,675.996582,0.04416114837,675.996582,0.01965713315,675.996582,0.00961562898,
674.9829102,0.00113365287,674.9829102,0.04607080668,674.9829102,0.06216412038,674.9829102,0.04574490339,674.9829102,0.0204747729,674.9829102,0.01142691448,
674.005127,-3.044083132E-005,674.005127,0.04663664475,674.005127,0.06186341122,674.005127,0.04499241337,674.005127,0.01972872391,674.005127,0.01082880609,
672.9909058,0.0002376982302,672.9909058,0.04758318886,672.9909058,0.06280634552,672.9909058,0.04661952704,672.9909058,0.02016255446,672.9909058,0.01109871734,
672.0125122,0.0006837203982,672.0125122,0.0476414226,672.0125122,0.06337678432,672.0125122,0.04554163665,672.0125122,0.02043070644,672.0125122,0.01170347352,
670.9976196,0.0005169396754,670.9976196,0.04814064875,670.9976196,0.06277254224,670.9976196,0.0462150313,670.9976196,0.02016128041,670.9976196,0.01150851138,
669.9823608,5.506294474E-005,669.9823608,0.04780258238,669.9823608,0.06329008192,669.9823608,0.04640251398,669.9823608,0.02078683674,669.9823608,0.0117941387,
669.0031738,-0.0003481819876,669.0031738,0.04855012521,669.0031738,0.06293068081,669.0031738,0.04554839432,669.0031738,0.02008454874,669.0031738,0.01147929952,
667.9873047,0.0004313449317,667.9873047,0.04853527248,667.9873047,0.06454977393,667.9873047,0.047347188,667.9873047,0.02125597559,667.9873047,0.01238566823,
667.0074463,0.0001060159775,667.0074463,0.04908627644,667.0074463,0.06343759596,667.0074463,0.04665572569,667.0074463,0.02165816538,667.0074463,0.01135582943,
665.9910278,-0.001057189424,665.9910278,0.04826386645,665.9910278,0.06395091116,665.9910278,0.0456699878,665.9910278,0.0215811152,665.9910278,0.01054954063,
665.010498,-9.685449186E-005,665.010498,0.04920790717,665.010498,0.06547604501,665.010498,0.04690178856,665.010498,0.02123561502,665.010498,0.0116716167,
663.9934082,6.552232662E-005,663.9934082,0.0493503958,663.9934082,0.06489682943,663.9934082,0.04784006625,663.9934082,0.02188392915,663.9934082,0.01220179442,
663.0124512,-0.0003667010751,663.0124512,0.04994494841,663.0124512,0.06561437249,663.0124512,0.04784934223,663.0124512,0.02200116962,663.0124512,0.01221933961,
661.994751,0.0002877401712,661.994751,0.05060517043,661.994751,0.06644888967,661.994751,0.04881663993,661.994751,0.02307264693,661.994751,0.01232925989,
661.0130615,0.000637028832,661.0130615,0.05072667822,661.0130615,0.06699498743,661.0130615,0.04903471842,661.0130615,0.02305162698,661.0130615,0.01276540756,
659.9946899,-0.0002038817911,659.9946899,0.05096114427,659.9946899,0.06684263796,659.9946899,0.0494196862,659.9946899,0.02262905613,659.9946899,0.01265407074,
659.0125122,-0.0001394512074,659.0125122,0.05165854096,659.0125122,0.06702820957,659.0125122,0.0492846556,659.0125122,0.02329431102,659.0125122,0.01250817999,
657.9935913,-0.000145972328,657.9935913,0.05192635953,657.9935913,0.06843203306,657.9935913,0.05055113509,657.9935913,0.02359616198,657.9935913,0.01334699802,
657.0107422,0.0001840364566,657.0107422,0.0520827882,657.0107422,0.06844085455,657.0107422,0.05028343573,657.0107422,0.02374457009,657.0107422,0.01353616454,
655.991272,-0.0008513311041,655.991272,0.05259740725,655.991272,0.06827639043,655.991272,0.05068350583,655.991272,0.02310868166,655.991272,0.01297768485,
655.0078125,0.0002092089999,655.0078125,0.05322878435,655.0078125,0.06936885417,655.0078125,0.0502528064,655.0078125,0.0247458443,655.0078125,0.01308083441,
653.9876709,0.0003808460024,653.9876709,0.05339590088,653.9876709,0.06946647167,653.9876709,0.05137276277,653.9876709,0.02442262694,653.9876709,0.0133676324,
653.0036621,-0.0002526253229,653.0036621,0.05301964656,653.0036621,0.06949587911,653.0036621,0.05099194124,653.0036621,0.0239373371,653.0036621,0.01251566596,
651.9829102,0.0002977130061,651.9829102,0.05319788679,651.9829102,0.06989663094,651.9829102,0.05188794062,651.9829102,0.02415265702,651.9829102,0.01353741996,
650.998291,0.0001786240173,650.998291,0.0542772226,650.998291,0.07090262324,650.998291,0.05219840258,650.998291,0.02525464632,650.998291,0.01495651994,
650.0134277,9.718679939E-005,650.0134277,0.0543958582,650.0134277,0.07064316422,650.0134277,0.05190436542,650.0134277,0.02520526573,650.0134277,0.0140693197,
648.9918213,0.00140162895,648.9918213,0.05495344102,648.9918213,0.07193178684,648.9918213,0.05330750719,648.9918213,0.02567340992,648.9918213,0.01397080068,
648.0063477,-0.0001484565437,648.0063477,0.05437687412,648.0063477,0.07111064345,648.0063477,0.0523885116,648.0063477,0.02547558956,648.0063477,0.01361217536,
646.9840698,0.000223064897,646.9840698,0.05478158593,646.9840698,0.07114189863,646.9840698,0.05264372006,646.9840698,0.02475867048,646.9840698,0.01416949276,
645.9981079,-0.0002568163909,645.9981079,0.05491117015,645.9981079,0.07130284607,645.9981079,0.05255226418,645.9981079,0.02614368312,645.9981079,0.01384752896,
645.0117188,0.0001597199007,645.0117188,0.05446308106,645.0117188,0.07121008635,645.0117188,0.05243173614,645.0117188,0.02583857253,645.0117188,0.01472822297,
643.9885864,-0.000991542358,643.9885864,0.05555904284,643.9885864,0.07235017419,643.9885864,0.05342045799,643.9885864,0.02543235756,643.9885864,0.01372154057,
643.001709,-0.000195343353,643.001709,0.05522185937,643.001709,0.07222812623,643.001709,0.05360000581,643.001709,0.02527626604,643.001709,0.01390285231,
642.0144653,0.0003371661587,642.0144653,0.05549656227,642.0144653,0.07209923118,642.0144653,0.0534722209,642.0144653,0.02560709417,642.0144653,0.01464776043,
640.9904785,-1.708440323E-005,640.9904785,0.05549179763,640.9904785,0.07169986516,640.9904785,0.05321436003,640.9904785,0.02491046302,640.9904785,0.01394420303,
640.0026855,-0.0002106606844,640.0026855,0.05511602014,640.0026855,0.07216487825,640.0026855,0.0536474511,640.0026855,0.02521733567,640.0026855,0.01348969992,
639.0146484,0.0002038739622,639.0146484,0.05629737303,639.0146484,0.07395710051,639.0146484,0.05358636007,639.0146484,0.02572388947,639.0146484,0.01472626813,
637.9898071,-0.0006219049683,637.9898071,0.0554052107,637.9898071,0.07278384268,637.9898071,0.05291694403,637.9898071,0.02503546141,637.9898071,0.01383675914,
637.0011597,-0.0001664148876,637.0011597,0.05602119118,637.0011597,0.07250159234,637.0011597,0.05380107462,637.0011597,0.02524658106,637.0011597,0.01336234715,
636.0122681,4.905668175E-005,636.0122681,0.05612808093,636.0122681,0.07333815098,636.0122681,0.05374309421,636.0122681,0.02601385675,636.0122681,0.01443498675,
634.9864502,0.0006694349577,634.9864502,0.05643147975,634.9864502,0.07381502539,634.9864502,0.05484331772,634.9864502,0.02622556314,634.9864502,0.01475722622,
633.9970093,-0.0003520617611,633.9970093,0.05585286021,633.9970093,0.07409459352,633.9970093,0.05396931618,633.9970093,0.02497234009,633.9970093,0.01355793048,
633.0072632,0.0001098221619,633.0072632,0.0570769906,633.0072632,0.07425387204,633.0072632,0.05459814519,633.0072632,0.02604958788,633.0072632,0.014461454,
632.0172729,0.0003182292276,632.0172729,0.05677252263,632.0172729,0.07422374189,632.0172729,0.05503937975,632.0172729,0.02594421804,632.0172729,0.01449177694,
630.9902954,0.0004945999826,630.9902954,0.05734350532,630.9902954,0.07505464554,630.9902954,0.05522485822,630.9902954,0.0265951734,630.9902954,0.01489125751,
629.9996948,-0.0004708692722,629.9996948,0.05695744604,629.9996948,0.07442466915,629.9996948,0.05501225963,629.9996948,0.02595913969,629.9996948,0.01406199392,
629.0088501,-0.0003460610169,629.0088501,0.05736988783,629.0088501,0.07492300123,629.0088501,0.05451707914,629.0088501,0.02623422444,629.0088501,0.01396847516,
628.0177002,-0.0004338908766,628.0177002,0.05775599182,628.0177002,0.07514745742,628.0177002,0.05546453223,628.0177002,0.02683577128,628.0177002,0.01445441507,
626.989624,0.0001847097737,626.989624,0.05753325298,626.989624,0.07557462156,626.989624,0.05615273491,626.989624,0.02707300335,626.989624,0.0151896812,
625.9978638,-0.0001099496731,625.9978638,0.05797189102,625.9978638,0.07589466125,625.9978638,0.05529212207,625.9978638,0.0254716631,625.9978638,0.01428269036,
625.0059204,0.0004339361039,625.0059204,0.0580179207,625.0059204,0.07615049183,625.0059204,0.05517535657,625.0059204,0.02622545324,625.0059204,0.01459389459,
624.0137329,-0.000178731716,624.0137329,0.05829306692,624.0137329,0.07655592263,624.0137329,0.05589086562,624.0137329,0.02629491687,624.0137329,0.01487630885,
622.984375,0.000586272683,622.984375,0.05835387856,622.984375,0.07671555132,622.984375,0.05694850162,622.984375,0.02676861547,622.984375,0.0152667053,
621.9915771,1.371978033E-005,621.9915771,0.0579171665,621.9915771,0.07667082548,621.9915771,0.05661905557,621.9915771,0.0261350777,621.9915771,0.01435067132,
620.9985352,-0.001147147617,620.9985352,0.05729131401,620.9985352,0.07607492059,620.9985352,0.05539324135,620.9985352,0.02606423758,620.9985352,0.01378777716,
620.005127,0.0003382024006,620.005127,0.05884563178,620.005127,0.07743547857,620.005127,0.05748133361,620.005127,0.02757761627,620.005127,0.01551301777,
619.0115356,0.0004887172254,619.0115356,0.0587679185,619.0115356,0.07730218768,619.0115356,0.05749935657,619.0115356,0.02703107148,619.0115356,0.01492064539,
618.0177002,-0.0007506135153,618.0177002,0.05880431458,618.0177002,0.07704783976,618.0177002,0.05659552291,618.0177002,0.02689784206,618.0177002,0.01468749437,
616.9866333,-0.0007597095682,616.9866333,0.06009289622,616.9866333,0.07813540846,616.9866333,0.05761565268,616.9866333,0.02729870379,616.9866333,0.0149046788,
615.9921875,0.0005373107851,615.9921875,0.06015241519,615.9921875,0.07851081342,615.9921875,0.05802963674,615.9921875,0.02754746936,615.9921875,0.01527509838,
614.9974976,-0.0004413385177,614.9974976,0.06004845724,614.9974976,0.07815957814,614.9974976,0.05671337619,614.9974976,0.02721733972,614.9974976,0.01522131544,
614.0025024,-0.0003409913916,614.0025024,0.06043147668,614.0025024,0.07895039767,614.0025024,0.05794115365,614.0025024,0.02816241235,614.0025024,0.01549528539,
613.0072021,4.289516801E-005,613.0072021,0.06057296321,613.0072021,0.07887520641,613.0072021,0.0583785437,613.0072021,0.02773395739,613.0072021,0.0157828778,
612.0117798,-5.037117444E-005,612.0117798,0.06090947241,612.0117798,0.07976700366,612.0117798,0.05841298401,612.0117798,0.02864288352,612.0117798,0.01564615592,
611.0159302,-5.565126776E-005,611.0159302,0.06092972681,611.0159302,0.08016433567,611.0159302,0.05891876668,611.0159302,0.02843480557,611.0159302,0.01573509723,
609.9829712,0.0004678819678,609.9829712,0.06204035878,609.9829712,0.0808333531,609.9829712,0.05937008187,609.9829712,0.0287273638,609.9829712,0.01585576497,
608.9866333,-0.0001427635289,608.9866333,0.06265661865,608.9866333,0.08089110255,608.9866333,0.05918611586,608.9866333,0.0282967221,608.9866333,0.0154686477,
607.9899902,-0.0003184359521,607.9899902,0.06211818382,607.9899902,0.08092029393,607.9899902,0.0599129349,607.9899902,0.02894947305,607.9899902,0.01554759964,
606.993103,0.0002648683148,606.993103,0.06311327964,606.993103,0.08192466944,606.993103,0.05991052836,606.993103,0.0294918716,606.993103,0.0162752606,
605.9959717,0.0001110391095,605.9959717,0.06359306723,605.9959717,0.08252242953,605.9959717,0.0608230792,605.9959717,0.02963382751,605.9959717,0.01694015972,
604.9985962,-0.0002913782373,604.9985962,0.06330157816,604.9985962,0.08299376816,604.9985962,0.06142756715,604.9985962,0.03014728241,604.9985962,0.0163429901,
604.0009155,0.0002198792936,604.0009155,0.06474659592,604.0009155,0.08360106498,604.0009155,0.06182783097,604.0009155,0.03023502603,604.0009155,0.01653932966,
603.0029297,-0.0002030020842,603.0029297,0.06465793401,603.0029297,0.08395446092,603.0029297,0.06235717982,603.0029297,0.03087316081,603.0029297,0.01709882915,
602.0047607,-0.0006049477379,602.0047607,0.0647810027,602.0047607,0.08411026746,602.0047607,0.06235458329,602.0047607,0.03083038889,602.0047607,0.01628824137,
601.0062256,0.0007700131973,601.0062256,0.06585282832,601.0062256,0.08533839136,601.0062256,0.06319677085,601.0062256,0.03182305396,601.0062256,0.01805077121,
600.0075073,6.795598165E-005,600.0075073,0.06606727839,600.0075073,0.08562251925,600.0075073,0.0635086,600.0075073,0.03179430962,600.0075073,0.01765169203,
599.0085449,-0.0002166632767,599.0085449,0.06698399037,599.0085449,0.0861794278,599.0085449,0.06413421035,599.0085449,0.03266665339,599.0085449,0.0179806985,
598.0092163,0.0001844766957,598.0092163,0.06743960083,598.0092163,0.08713495731,598.0092163,0.06487882882,598.0092163,0.03283293173,598.0092163,0.01856810413,
597.0097046,6.19495404E-005,597.0097046,0.06797008961,597.0097046,0.08748517185,597.0097046,0.06491772085,597.0097046,0.03281252459,597.0097046,0.01819230244,
596.0098877,0.0002781561343,596.0098877,0.06781751662,596.0098877,0.08808407187,596.0098877,0.065022856,596.0098877,0.03372485191,596.0098877,0.01856105216,
595.0098877,-0.0005114643136,595.0098877,0.06871898472,595.0098877,0.08889855444,595.0098877,0.06613814086,595.0098877,0.0341338031,595.0098877,0.01855956577,
594.0095825,0.0004596414219,594.0095825,0.06985865533,594.0095825,0.0900137648,594.0095825,0.06648315489,594.0095825,0.03444791213,594.0095825,0.01913017221,
593.0089722,0.0001064043608,593.0089722,0.07056358457,593.0089722,0.09058246017,593.0089722,0.06765770912,593.0089722,0.03502789512,593.0089722,0.01956099458,
592.0081787,-0.0008407902205,592.0081787,0.07028061152,592.0081787,0.09070289135,592.0081787,0.06797242165,592.0081787,0.03512190655,592.0081787,0.01895923913,
591.0070801,-0.0002992422087,591.0070801,0.07131550461,591.0070801,0.09172029793,591.0070801,0.06895506382,591.0070801,0.03658722341,591.0070801,0.01998340897,
590.0056763,-0.0006037069252,590.0056763,0.07199294865,590.0056763,0.09249982983,590.0056763,0.06900133193,590.0056763,0.03676233813,590.0056763,0.01981642097,
589.0040894,0.0005303389044,589.0040894,0.07404007018,589.0040894,0.09464178979,589.0040894,0.07083749771,589.0040894,0.03881278262,589.0040894,0.02083398029,
588.0021973,-0.0001890299754,588.0021973,0.07476055622,588.0021973,0.09422086924,588.0021973,0.07129174471,588.0021973,0.03843393177,588.0021973,0.0209739469,
587.000061,0.000406185427,587.000061,0.07630506158,587.000061,0.0964339003,587.000061,0.07306823134,587.000061,0.04042183608,587.000061,0.02265343629,
585.9976807,-0.0004093230527,585.9976807,0.07681047171,585.9976807,0.09740701318,585.9976807,0.07310707122,585.9976807,0.04098618776,585.9976807,0.0221039243,
584.9950562,0.0003712339676,584.9950562,0.07864379138,584.9950562,0.09851615876,584.9950562,0.07509405911,584.9950562,0.04194471613,584.9950562,0.02381046489,
583.9921875,2.821662201E-005,583.9921875,0.07960457355,583.9921875,0.1001383737,583.9921875,0.07576023787,583.9921875,0.04334385321,583.9921875,0.02371088788,
582.9889526,-0.000572840916,582.9889526,0.08068819344,582.9889526,0.1011004224,582.9889526,0.07718028128,582.9889526,0.04436502978,582.9889526,0.02409445308,
581.9855957,-0.0001411073754,581.9855957,0.08218214661,581.9855957,0.1024104506,581.9855957,0.07819760591,581.9855957,0.0454354845,581.9855957,0.02415503748,
580.9818726,-8.670934039E-005,580.9818726,0.0838599056,580.9818726,0.1042379364,580.9818726,0.08039136231,580.9818726,0.04656186327,580.9818726,0.02551775426,
580.0151367,-0.001246740809,580.0151367,0.08484637737,580.0151367,0.1046969444,580.0151367,0.08066649735,580.0151367,0.04729318246,580.0151367,0.02544663101,
579.0109863,0.0002770423307,579.0109863,0.0874440372,579.0109863,0.1077324748,579.0109863,0.08294475824,579.0109863,0.04977642745,579.0109863,0.02681399137,
578.0065308,0.0004027911928,578.0065308,0.08898852021,578.0065308,0.1085556373,578.0065308,0.08411586285,578.0065308,0.05138843879,578.0065308,0.02808723599,
577.0018311,0.0004005111114,577.0018311,0.09036693722,577.0018311,0.1097238213,577.0018311,0.08532487601,577.0018311,0.05174400657,577.0018311,0.02843008004,
575.9968872,-0.0002223035553,575.9968872,0.09148468822,575.9968872,0.1112198532,575.9968872,0.08703395724,575.9968872,0.05327988043,575.9968872,0.02894410491,
574.9917603,-6.750535977E-005,574.9917603,0.09251298755,574.9917603,0.1127058491,574.9917603,0.08744365722,574.9917603,0.05428085849,574.9917603,0.02931315638,
573.9862061,-0.0002712520072,573.9862061,0.0933938846,573.9862061,0.1136467755,573.9862061,0.08817752451,573.9862061,0.05478367209,573.9862061,0.0296746511,
573.0177612,0.0003668814315,573.0177612,0.09494791925,573.0177612,0.1149896234,573.0177612,0.08948350698,573.0177612,0.0563259609,573.0177612,0.03079687431,
572.0118408,1.118288219E-005,572.0118408,0.09589023143,572.0118408,0.1157849357,572.0118408,0.09038057923,572.0118408,0.05684459955,572.0118408,0.03078709356,
571.0056763,-0.0001048772829,571.0056763,0.09630124271,571.0056763,0.1166910678,571.0056763,0.0912790671,571.0056763,0.05687446147,571.0056763,0.03120046481,
569.9992065,0.0002295397571,569.9992065,0.09716010094,569.9992065,0.1172976494,569.9992065,0.09169065952,569.9992065,0.05804268643,569.9992065,0.03142743185,
568.9925537,1.573895315E-005,568.9925537,0.0973496139,568.9925537,0.1175799966,568.9925537,0.09191963077,568.9925537,0.05812592432,568.9925537,0.03142979741,
567.9855957,-1.459944087E-005,567.9855957,0.0981092751,567.9855957,0.1188134104,567.9855957,0.09267625213,567.9855957,0.05819132924,567.9855957,0.0321556218,
567.0157471,-9.54569623E-005,567.0157471,0.09814964235,567.0157471,0.1183992773,567.0157471,0.09251933545,567.0157471,0.05851474404,567.0157471,0.03173437715,
566.0082397,-0.0002541258582,566.0082397,0.09815885872,566.0082397,0.1187226549,566.0082397,0.09261403233,566.0082397,0.05797387287,566.0082397,0.03160195053,
565.0006104,9.804122965E-005,565.0006104,0.09853086621,565.0006104,0.119236961,565.0006104,0.09283130616,565.0006104,0.05858233944,565.0006104,0.03160147741,
563.9926147,0.0002808241115,563.9926147,0.09849712253,563.9926147,0.1190622449,563.9926147,0.09263187647,563.9926147,0.05763250217,563.9926147,0.03176874295,
562.9844971,0.0002141038422,562.9844971,0.09825410694,562.9844971,0.1197383031,562.9844971,0.0929948166,562.9844971,0.05825455487,562.9844971,0.03179522976,
562.0134277,-3.235625627E-005,562.0134277,0.09833172709,562.0134277,0.1193730012,562.0134277,0.09312743694,562.0134277,0.05776891112,562.0134277,0.03165724501,
561.0047607,7.471333083E-005,561.0047607,0.09824229777,561.0047607,0.1191979274,561.0047607,0.0929287374,561.0047607,0.05767036974,561.0047607,0.03126196563,
559.9957886,-8.971150237E-005,559.9957886,0.09856669605,559.9957886,0.119495824,559.9957886,0.09283595532,559.9957886,0.05781844258,559.9957886,0.03121581674,
558.9866943,1.674854502E-005,558.9866943,0.09829121083,558.9866943,0.1197512001,558.9866943,0.09256523848,558.9866943,0.05743842945,558.9866943,0.03116113693,
558.0146484,-0.0004957438796,558.0146484,0.09845756739,558.0146484,0.1195605919,558.0146484,0.09227887541,558.0146484,0.05690653622,558.0146484,0.03089478426,
557.0050659,-0.0001500091603,557.0050659,0.0984608531,557.0050659,0.1199105978,557.0050659,0.09305918217,557.0050659,0.05753733218,557.0050659,0.03124015592,
555.9951172,0.0002037962695,555.9951172,0.0991660282,555.9951172,0.1204657033,555.9951172,0.09378107637,555.9951172,0.05762930959,555.9951172,0.03145898879,
554.9849854,0.000229332567,554.9849854,0.09876731038,554.9849854,0.1212748066,554.9849854,0.09326202422,554.9849854,0.0577105768,554.9849854,0.03169477731,
554.012085,0.0002598175197,554.012085,0.09969609976,554.012085,0.1214498952,554.012085,0.09430404007,554.012085,0.05858106539,554.012085,0.03171727806,
553.0014648,0.0004582421097,553.0014648,0.1000469103,553.0014648,0.1220751628,553.0014648,0.09453178197,553.0014648,0.0581613183,553.0014648,0.03176768497,
551.9905396,-0.0001820954931,551.9905396,0.1000529379,551.9905396,0.1221673787,551.9905396,0.09457716346,551.9905396,0.05887820944,551.9905396,0.03164404631,
551.0169067,-0.0002281507623,551.0169067,0.1011071205,551.0169067,0.1230197251,551.0169067,0.09555517882,551.0169067,0.05901103839,551.0169067,0.03207152709,
550.0056763,0.0001735224214,550.0056763,0.1018660888,550.0056763,0.1240805537,550.0056763,0.09621801227,550.0056763,0.05964852124,550.0056763,0.03259119391,
548.9940186,0.0001876879396,548.9940186,0.1029256061,548.9940186,0.1249820516,548.9940186,0.09654901177,548.9940186,0.06048098207,548.9940186,0.03311293945,
547.9821777,0.0002880510292,547.9821777,0.103495501,547.9821777,0.1258059144,547.9821777,0.09775114059,547.9821777,0.06073107943,547.9821777,0.03332824633,
547.0076294,0.000268753618,547.0076294,0.1041082591,547.0076294,0.1267743409,547.0076294,0.09820555896,547.0076294,0.06122904643,547.0076294,0.03327681869,
545.9954224,-9.173018043E-005,545.9954224,0.104564175,545.9954224,0.1268935204,545.9954224,0.09859644622,545.9954224,0.06193586066,545.9954224,0.03339541703,
544.9828491,0.0003787473834,544.9828491,0.1054082066,544.9828491,0.1278965473,544.9828491,0.09940362722,544.9828491,0.0626700148,544.9828491,0.03395703062,
544.0076294,6.989267604E-006,544.0076294,0.106068939,544.0076294,0.1290643662,544.0076294,0.1003900766,544.0076294,0.06338004768,544.0076294,0.03452203795,
542.9946289,-2.99749172E-005,542.9946289,0.1070879847,542.9946289,0.1294758022,542.9946289,0.1006048173,542.9946289,0.06369874626,542.9946289,0.03455494344,
541.9813843,-2.469451101E-005,541.9813843,0.1076923385,541.9813843,0.1302241683,541.9813843,0.1010593846,541.9813843,0.06388118863,541.9813843,0.03479772061,
541.0054321,0.0001896561298,541.0054321,0.1081055477,541.0054321,0.1305609494,541.0054321,0.1017754078,541.0054321,0.06405539066,541.0054321,0.03443098441,
539.9917603,3.574999209E-005,539.9917603,0.1089330092,539.9917603,0.1313530207,539.9917603,0.1023828909,539.9917603,0.06459008157,539.9917603,0.03484427929,
539.0153809,-0.0001225268934,539.0153809,0.1093119383,539.0153809,0.1319965124,539.0153809,0.1029475182,539.0153809,0.06517823786,539.0153809,0.03542540967,
538.0012207,2.420405508E-005,538.0012207,0.1097595468,538.0012207,0.1330602914,538.0012207,0.1033750176,538.0012207,0.06564508379,538.0012207,0.03561806679,
536.9867554,0.0002181699529,536.9867554,0.1102302074,536.9867554,0.1330835372,536.9867554,0.1038274691,536.9867554,0.06567194313,536.9867554,0.03547054529,
536.0097046,0.0001053168889,536.0097046,0.1105398834,536.0097046,0.1336371452,536.0097046,0.1041418165,536.0097046,0.06590531021,536.0097046,0.03553434089,
534.9949341,9.162010247E-005,534.9949341,0.1109112278,534.9949341,0.1341969371,534.9949341,0.1045682877,534.9949341,0.06650801748,534.9949341,0.03608798608,
534.017395,0.0002336578182,534.017395,0.1113399193,534.017395,0.1343751401,534.017395,0.1046345606,534.017395,0.06622429937,534.017395,0.03603957966,
533.0020752,6.09916242E-005,533.0020752,0.1109966859,533.0020752,0.1348297596,533.0020752,0.1047707126,533.0020752,0.06592676044,533.0020752,0.03568407521,
531.9865112,0.0001546962158,531.9865112,0.1117024422,531.9865112,0.1351282299,531.9865112,0.1048630401,531.9865112,0.06629350036,531.9865112,0.03583979234,
531.0083618,-5.042293924E-005,531.0083618,0.1116125286,531.0083618,0.13533099,531.0083618,0.1050703153,531.0083618,0.06628128886,531.0083618,0.03602340817,
529.9923096,-0.000134586182,529.9923096,0.1117876247,529.9923096,0.1356576681,529.9923096,0.1051944718,529.9923096,0.06647477299,529.9923096,0.03612793237,
529.0136719,0.0002302908542,529.0136719,0.1121321172,529.0136719,0.1358231604,529.0136719,0.1058916822,529.0136719,0.06643935293,529.0136719,0.03615803272,
527.9972534,-5.166531992E-005,527.9972534,0.1116410792,527.9972534,0.1355945319,527.9972534,0.105440639,527.9972534,0.06544884294,527.9972534,0.03502385318,
527.0181274,-2.236490036E-005,527.0181274,0.1118415669,527.0181274,0.136164397,527.0181274,0.1055570468,527.0181274,0.06599865854,527.0181274,0.03529392928,
526.0012207,-0.0002616800484,526.0012207,0.111533843,526.0012207,0.1357838064,526.0012207,0.1052464545,526.0012207,0.06580068916,526.0012207,0.03515101224,
524.9840088,0.0003259489604,524.9840088,0.1120094135,524.9840088,0.1359742433,524.9840088,0.1056549922,524.9840088,0.06542193145,524.9840088,0.03569891304,
524.0043945,-0.0002740459167,524.0043945,0.1116698012,524.0043945,0.13578403,524.0043945,0.1054451615,524.0043945,0.06474281102,524.0043945,0.03522596136,
522.9866943,-0.0002785472025,522.9866943,0.1114260331,522.9866943,0.1361054629,522.9866943,0.1051417068,522.9866943,0.06511937827,522.9866943,0.03530095145,
522.0065918,-7.614984497E-005,522.0065918,0.1117957607,522.0065918,0.1364218593,522.0065918,0.1057084128,522.0065918,0.06497038901,522.0065918,0.03525945172,
520.9885254,0.0003206383844,520.9885254,0.111927107,520.9885254,0.1368488222,520.9885254,0.1055082604,520.9885254,0.06496521831,520.9885254,0.03527781367,
520.0079346,1.946668453E-005,520.0079346,0.1116089448,520.0079346,0.1365058571,520.0079346,0.1050613523,520.0079346,0.06433796138,520.0079346,0.03523876145,
518.9894409,-0.0001065335746,518.9894409,0.1120770276,518.9894409,0.1369232982,518.9894409,0.1050346792,518.9894409,0.06471985579,518.9894409,0.035088256,
518.0084229,0.0001603413984,518.0084229,0.1113672182,518.0084229,0.1367000788,518.0084229,0.105262056,518.0084229,0.06428372115,518.0084229,0.0345556438,
516.9894409,0.0003650419821,516.9894409,0.1118140742,516.9894409,0.1368515939,516.9894409,0.1055386588,516.9894409,0.06441193819,516.9894409,0.03463172168,
516.0079346,0.000266085699,516.0079346,0.1111819595,516.0079346,0.1368800849,516.0079346,0.1052407771,516.0079346,0.06377108395,516.0079346,0.03478465229,
514.9885864,-0.0001668289042,514.9885864,0.1113427952,514.9885864,0.1369509995,514.9885864,0.1051583588,514.9885864,0.06347351521,514.9885864,0.03409348056,
514.0067139,-1.770564086E-005,514.0067139,0.1116347238,514.0067139,0.1377085447,514.0067139,0.1054002568,514.0067139,0.06383614987,514.0067139,0.0346256122,
512.9868774,-0.0001109330915,512.9868774,0.1114855558,512.9868774,0.1375865042,512.9868774,0.1054790244,512.9868774,0.06350629032,512.9868774,0.03435174748,
512.0045776,0.0003147579846,512.0045776,0.1122539863,512.0045776,0.1376077533,512.0045776,0.105810985,512.0045776,0.06388106942,512.0045776,0.03430053592,
510.9842529,0.0004630879266,510.9842529,0.1116939411,510.9842529,0.1382625699,510.9842529,0.1055532843,510.9842529,0.06380538642,510.9842529,0.03413839638,
510.0015564,-0.0002679923782,510.0015564,0.1118284762,510.0015564,0.1378987432,510.0015564,0.1053501666,510.0015564,0.06310313195,510.0015564,0.03404361755,
509.0186157,-7.501105574E-005,509.0186157,0.1118021905,509.0186157,0.1386538893,509.0186157,0.1058223844,509.0186157,0.06296739727,509.0186157,0.03417984396,
507.9976807,0.0004741790763,507.9976807,0.1124572381,507.9976807,0.1393103153,507.9976807,0.1058542877,507.9976807,0.0635349378,507.9976807,0.03435129672,
507.0143433,-4.519454887E-005,507.0143433,0.112548098,507.0143433,0.1389287263,507.0143433,0.1062728912,507.0143433,0.06325776875,507.0143433,0.03471998498,
505.9929199,-0.0001258393459,505.9929199,0.1125213653,505.9929199,0.1394247115,505.9929199,0.106218867,505.9929199,0.0634887293,505.9929199,0.03417326137,
505.0091553,2.850138662E-005,505.0091553,0.1125179455,505.0091553,0.1398139,505.0091553,0.1065044552,505.0091553,0.06319285184,505.0091553,0.03406822681,
503.9873352,-0.0004420625919,503.9873352,0.1123046726,503.9873352,0.1397246122,503.9873352,0.1065787971,503.9873352,0.06313291192,503.9873352,0.03403241932,
503.0031433,-8.350010467E-005,503.0031433,0.1129016951,503.0031433,0.1406339109,503.0031433,0.1071413904,503.0031433,0.06302563846,503.0031433,0.03389688209,
502.0187378,0.0004187002196,502.0187378,0.1139255464,502.0187378,0.1414380968,502.0187378,0.1078463793,502.0187378,0.06378176063,502.0187378,0.03481182829,
500.9962463,0.0002338391205,500.9962463,0.1138006151,500.9962463,0.1411188841,500.9962463,0.107907705,500.9962463,0.06340710074,500.9962463,0.0346108079,
500.0114136,0.0001665045711,500.0114136,0.1143080145,500.0114136,0.1420226097,500.0114136,0.1084849164,500.0114136,0.06407117099,500.0114136,0.03476672992,
498.9885254,0.0002698414901,498.9885254,0.11461889,498.9885254,0.142488867,498.9885254,0.1086769029,498.9885254,0.06407429278,498.9885254,0.0346551612,
498.0032654,0.0002953557705,498.0032654,0.1147798225,498.0032654,0.1427351236,498.0032654,0.1087321267,498.0032654,0.06409391016,498.0032654,0.0345380418,
497.0178833,-0.0002704241488,497.0178833,0.115023829,497.0178833,0.1427885145,497.0178833,0.1086142063,497.0178833,0.06397901475,497.0178833,0.03439321369,
495.9942932,-0.0001914104359,495.9942932,0.1153667569,495.9942932,0.1434393972,495.9942932,0.1095875725,495.9942932,0.06418015063,495.9942932,0.03467268497,
495.0084534,0.0002233497798,495.0084534,0.1155113503,495.0084534,0.1441892982,495.0084534,0.1096107587,495.0084534,0.06436479837,495.0084534,0.03496128321,
493.9845276,-5.62206842E-005,493.9845276,0.1161136106,493.9845276,0.1449750066,493.9845276,0.1100386381,493.9845276,0.06504817307,493.9845276,0.0353907235,
492.9981995,-7.330287917E-005,492.9981995,0.116738379,492.9981995,0.1457496285,492.9981995,0.1103874594,492.9981995,0.06531409174,492.9981995,0.03568314761,
492.0117798,0.0003048106737,492.0117798,0.11688032,492.0117798,0.1458021253,492.0117798,0.1112623885,492.0117798,0.06534773111,492.0117798,0.03525625169,
490.9871521,0.0001403246133,490.9871521,0.1175935045,490.9871521,0.1465262771,490.9871521,0.1113602296,490.9871521,0.06521189958,490.9871521,0.03540709987,
490.0003052,-0.0002954137162,490.0003052,0.117975004,490.0003052,0.1471617371,490.0003052,0.1118034273,490.0003052,0.06568232924,490.0003052,0.03576689959,
489.0132446,-0.0002404658298,489.0132446,0.1183512732,489.0132446,0.1478075236,489.0132446,0.1121729016,489.0132446,0.06579472125,489.0132446,0.03584746644,
487.9879761,-5.244180647E-005,487.9879761,0.1190644279,487.9879761,0.1483437568,487.9879761,0.112469241,487.9879761,0.06604452431,487.9879761,0.03589037061,
487.0005493,0.0003242133243,487.0005493,0.1196161956,487.0005493,0.1487944573,487.0005493,0.1132559106,487.0005493,0.0661631003,487.0005493,0.03574329242,
486.0128784,2.614490768E-006,486.0128784,0.1199303493,486.0128784,0.1496291161,486.0128784,0.1136202738,486.0128784,0.06665967405,486.0128784,0.03607676178,
484.9869385,1.527274776E-006,484.9869385,0.1207174733,484.9869385,0.1506104916,484.9869385,0.1141805202,484.9869385,0.06745716929,484.9869385,0.03667934984,
483.9988708,-0.0003835641546,483.9988708,0.1208903939,483.9988708,0.1507933587,483.9988708,0.1146413684,483.9988708,0.06717763841,483.9988708,0.03632267192,
483.0106201,-1.061311741E-005,483.0106201,0.1219448224,483.0106201,0.1516373605,483.0106201,0.115276143,483.0106201,0.06689037383,483.0106201,0.03643101081,
481.9841003,0.0002154505783,481.9841003,0.122917816,481.9841003,0.153018266,481.9841003,0.1163545474,481.9841003,0.06807904691,481.9841003,0.03716195002,
480.9954529,0.0003915205016,480.9954529,0.1229817867,480.9954529,0.1535187513,480.9954529,0.1164308935,480.9954529,0.06852741539,480.9954529,0.03700009361,
480.0066223,0.0003161050263,480.0066223,0.1239963025,480.0066223,0.1546310186,480.0066223,0.1173646003,480.0066223,0.06887921691,480.0066223,0.03765689209,
479.0174866,-0.0001273402886,479.0174866,0.1242663935,479.0174866,0.1548250169,479.0174866,0.1177544519,479.0174866,0.06913413852,479.0174866,0.03768692911,
477.9902649,0.000153634508,477.9902649,0.1259824038,477.9902649,0.1560533494,477.9902649,0.118758589,477.9902649,0.06999655813,477.9902649,0.03820870072,
477.0007324,-0.0002627148642,477.0007324,0.1260858178,477.0007324,0.1568066478,477.0007324,0.119129397,477.0007324,0.07036400586,477.0007324,0.03815810755,
476.0110779,-0.0001008400213,476.0110779,0.1269653589,476.0110779,0.1578096896,476.0110779,0.1203157902,476.0110779,0.07066594809,476.0110779,0.0383836478,
474.9832153,0.0002079140831,474.9832153,0.1279932261,474.9832153,0.1590312272,474.9832153,0.1213643104,474.9832153,0.07207731903,474.9832153,0.03938944265,
473.993103,-0.0002410350135,473.993103,0.1291377246,473.993103,0.1603428572,473.993103,0.1221547872,473.993103,0.07279663533,473.993103,0.03930668905,
473.0028687,0.0002333729208,473.0028687,0.1300208122,473.0028687,0.1614839882,473.0028687,0.1231985465,473.0028687,0.07332653552,473.0028687,0.04009826854,
472.0124207,0.0003742911504,472.0124207,0.1309780329,472.0124207,0.1621057987,472.0124207,0.1240933612,472.0124207,0.07411433756,472.0124207,0.04041479155,
470.9836426,0.0003541867773,470.9836426,0.1323213726,470.9836426,0.1640610695,470.9836426,0.1253357977,470.9836426,0.07486662269,470.9836426,0.04101002961,
469.9928284,0.0003401453723,469.9928284,0.1340030283,469.9928284,0.1654454023,469.9928284,0.1262288094,469.9928284,0.07577284425,469.9928284,0.04131024703,
469.0018005,0.0002575899998,469.0018005,0.1346683502,469.0018005,0.1657494903,469.0018005,0.1274614334,469.0018005,0.0765671283,469.0018005,0.04145170376,
468.0105591,-0.0001164194837,468.0105591,0.1357929111,468.0105591,0.1675050855,468.0105591,0.1280557662,468.0105591,0.0776117444,468.0105591,0.04154817015,
466.9811096,0.0003271665191,466.9811096,0.1373308748,466.9811096,0.1695025861,466.9811096,0.1294121891,466.9811096,0.07862108201,466.9811096,0.04275780916,
465.989502,0.0003637984046,465.989502,0.1386475414,465.989502,0.170640111,465.989502,0.1310844123,465.989502,0.0799588412,465.989502,0.04317881912,
464.9976501,-3.831106369E-006,464.9976501,0.1399216354,464.9976501,0.1720871627,464.9976501,0.131534338,464.9976501,0.08070225269,464.9976501,0.0434371382,
464.0056763,-0.0002583686437,464.0056763,0.1412329376,464.0056763,0.1731489599,464.0056763,0.1334439516,464.0056763,0.08189266175,464.0056763,0.04391803592,
463.0135498,4.597591396E-005,463.0135498,0.1435879916,463.0135498,0.175814718,463.0135498,0.1350658238,463.0135498,0.08383014053,463.0135498,0.04536254704,
461.9829712,0.0001105471529,461.9829712,0.1445619017,461.9829712,0.1773282737,461.9829712,0.1366203576,461.9829712,0.08450914174,461.9829712,0.04613211751,
460.990448,2.125289939E-005,460.990448,0.1470356286,460.990448,0.1795508265,460.990448,0.1382048875,460.990448,0.08626656234,460.990448,0.04696682096,
459.9977112,-0.0002977418771,459.9977112,0.1485827714,459.9977112,0.1813957393,459.9977112,0.1403286755,459.9977112,0.08742662519,459.9977112,0.04728714749,
459.0047607,-7.138763613E-005,459.0047607,0.1505198032,459.0047607,0.1831083,459.0047607,0.1418307722,459.0047607,0.08917042613,459.0047607,0.04816962779,
458.0116272,0.0002917292877,458.0116272,0.1526355445,458.0116272,0.1855302006,458.0116272,0.1437407434,458.0116272,0.09145206213,458.0116272,0.04891533777,
457.0183105,-0.000270527642,457.0183105,0.1550860554,457.0183105,0.1880336851,457.0183105,0.1457119286,457.0183105,0.09292847663,457.0183105,0.05010478944,
455.9866028,5.335425885E-005,455.9866028,0.1576181501,455.9866028,0.1908048987,455.9866028,0.1479932219,455.9866028,0.09512676299,455.9866028,0.05060947686,
454.9929199,-0.0001010988271,454.9929199,0.1601427943,454.9929199,0.1926097274,454.9929199,0.1505168378,454.9929199,0.09723499417,454.9929199,0.05277468264,
453.999054,-0.0001012541034,453.999054,0.1625770926,453.999054,0.1950342059,453.999054,0.1528484523,453.999054,0.09994442016,453.999054,0.05345146358,
453.0049438,-0.0002642153413,453.0049438,0.1647747159,453.0049438,0.1978492588,453.0049438,0.1554670632,453.0049438,0.1015097871,453.0049438,0.05425973982,
452.0107422,4.452409485E-006,452.0107422,0.1677755862,452.0107422,0.2007907182,452.0107422,0.157625407,452.0107422,0.1036690921,452.0107422,0.05584835634,
451.0163269,-0.0004294429091,451.0163269,0.1708723903,451.0163269,0.204617694,451.0163269,0.1602039188,451.0163269,0.1071394682,451.0163269,0.05725758523,
449.983429,-4.669577538E-005,449.983429,0.1745704561,449.983429,0.207432732,449.983429,0.163059637,449.983429,0.109510988,449.983429,0.05842995271,
448.9886475,-0.0002224070486,448.9886475,0.1781013608,448.9886475,0.2109848559,448.9886475,0.1667050123,448.9886475,0.1130108461,448.9886475,0.06009783223,
447.9936523,-9.716505156E-005,447.9936523,0.1811024547,447.9936523,0.2142392993,447.9936523,0.1700256914,447.9936523,0.1161401942,447.9936523,0.06242086738,
446.9985046,-0.0001900649513,446.9985046,0.184819594,446.9985046,0.2179908752,446.9985046,0.1731560081,446.9985046,0.119561784,446.9985046,0.063494578,
446.0031128,-0.0001547187567,446.0031128,0.1898020804,446.0031128,0.2223649025,446.0031128,0.1770285815,446.0031128,0.1233080178,446.0031128,0.0656253323,
445.0075989,1.361623254E-005,445.0075989,0.19437325,445.0075989,0.2271601707,445.0075989,0.1813088506,445.0075989,0.1268218607,445.0075989,0.06750010699,
444.0118408,-0.0002517974644,444.0118408,0.1992637366,444.0118408,0.2311055809,444.0118408,0.1861146688,444.0118408,0.1313400716,444.0118408,0.06979763508,
443.0159912,-0.0002312554279,443.0159912,0.2048149407,443.0159912,0.2377713919,443.0159912,0.1909970641,443.0159912,0.1368084997,443.0159912,0.07343939692,
441.9815979,-0.000126770974,441.9815979,0.2106902897,441.9815979,0.2433622777,441.9815979,0.1963610798,441.9815979,0.141320914,441.9815979,0.0757753998,
440.985321,7.031198038E-005,440.985321,0.2169710994,440.985321,0.2496943474,440.985321,0.2017078698,440.985321,0.1469993591,440.985321,0.07887008041,
439.9888916,0.0001083721872,439.9888916,0.2250598669,439.9888916,0.2569360733,439.9888916,0.2088796645,439.9888916,0.1531869769,439.9888916,0.08173453063,
438.9923096,0.0001820164907,438.9923096,0.2313208729,438.9923096,0.2634413242,438.9923096,0.2160186917,438.9923096,0.161547035,438.9923096,0.08521865308,
437.9954529,-1.035438615E-007,437.9954529,0.2405325025,437.9954529,0.2716767788,437.9954529,0.2232588232,437.9954529,0.168457672,437.9954529,0.08980718255,
436.9984741,4.506980986E-005,436.9984741,0.2490948737,436.9984741,0.279856056,436.9984741,0.2315372676,436.9984741,0.1770593524,436.9984741,0.09378445148,
436.0013733,0.000193048676,436.0013733,0.2618173659,436.0013733,0.2903936803,436.0013733,0.2404869646,436.0013733,0.1863397509,436.0013733,0.09982739389,
435.0039673,-0.0001131069512,435.0039673,0.2714324892,435.0039673,0.3031949103,435.0039673,0.2495704889,435.0039673,0.1956710219,435.0039673,0.1045498177,
434.0064697,0.0005436089123,434.0064697,0.2833203375,434.0064697,0.3125910163,434.0064697,0.2612065971,434.0064697,0.2070830911,434.0064697,0.1105237603,
433.008728,-0.0003063817567,433.008728,0.2946034968,433.008728,0.3238647878,433.008728,0.2722605467,433.008728,0.2170252353,433.008728,0.1157468781,
432.0108948,0.0001669966005,432.0108948,0.309884578,432.0108948,0.3371283412,432.0108948,0.283813417,432.0108948,0.2336442024,432.0108948,0.123401694,
431.0128784,0.0001496984623,431.0128784,0.32337448,431.0128784,0.3504999578,431.0128784,0.2985927463,431.0128784,0.2429490238,431.0128784,0.1303793937,
430.0146484,-0.0002952067589,430.0146484,0.3391829431,430.0146484,0.3647380173,430.0146484,0.3109466136,430.0146484,0.2587583959,430.0146484,0.1365407705,
429.0162354,8.255820285E-005,429.0162354,0.3537200093,429.0162354,0.3783811629,429.0162354,0.3256551921,429.0162354,0.271982491,429.0162354,0.1456726938,
428.0177002,0.0001287758932,428.0177002,0.3689979911,428.0177002,0.3937084973,428.0177002,0.3396075964,428.0177002,0.2867850661,428.0177002,0.1540465802,
427.0189209,-4.343448381E-005,427.0189209,0.3834972084,427.0189209,0.4096205533,427.0189209,0.3536315262,427.0189209,0.3006061912,427.0189209,0.161910668,
425.9815979,-0.0002127822954,425.9815979,0.3991044462,425.9815979,0.4244973063,425.9815979,0.3660987616,425.9815979,0.3153269589,425.9815979,0.1705798805,
424.9824829,-0.0002154731046,424.9824829,0.4154899716,424.9824829,0.4382641613,424.9824829,0.3797688782,424.9824829,0.3294259012,424.9824829,0.1758309305,
423.9832458,0.0008128029294,423.9832458,0.4286732674,423.9832458,0.4510865808,423.9832458,0.3917259574,423.9832458,0.3420969546,423.9832458,0.1835612059,
422.9837952,-0.0001116059502,422.9837952,0.4400853813,422.9837952,0.4624722898,422.9837952,0.4026322365,422.9837952,0.352586925,422.9837952,0.1902300864,
421.9841614,-0.0001094320833,421.9841614,0.4521853924,421.9841614,0.4712484777,421.9841614,0.412969172,421.9841614,0.3613459468,421.9841614,0.195687592,
420.984375,-0.000121595258,420.984375,0.4587201178,420.984375,0.4800467789,420.984375,0.4201257825,420.984375,0.3701262474,420.984375,0.1999192536,
419.984436,0.0002429300803,419.984436,0.4661551118,419.984436,0.4857680202,419.984436,0.4258761704,419.984436,0.3751300871,419.984436,0.203355059,
418.9842834,8.952290227E-005,418.9842834,0.4706862271,418.9842834,0.4912436306,418.9842834,0.4307123125,418.9842834,0.379678905,418.9842834,0.2054113895,
417.9839783,0.0001964671537,417.9839783,0.4728775024,417.9839783,0.4940789938,417.9839783,0.4327586293,417.9839783,0.3821346164,417.9839783,0.2064716071,
416.9835205,0.0003553007846,416.9835205,0.4736407995,416.9835205,0.4941159785,416.9835205,0.4334387779,416.9835205,0.3821480572,416.9835205,0.2071169168,
415.9828491,-7.526987611E-005,415.9828491,0.4717132449,415.9828491,0.4924839139,415.9828491,0.43143031,415.9828491,0.3799687922,415.9828491,0.2055706084,
414.9820557,-0.0002827380376,414.9820557,0.4690162838,414.9820557,0.4895139039,414.9820557,0.4279444218,414.9820557,0.3760793507,414.9820557,0.2039010227,
413.9810181,1.664499723E-005,413.9810181,0.4639925957,413.9810181,0.4867533743,413.9810181,0.4238807559,413.9810181,0.3724251688,413.9810181,0.2017187774,
413.0184021,-0.0004005300289,413.0184021,0.4582417309,413.0184021,0.4811485112,413.0184021,0.4183120131,413.0184021,0.3664648831,413.0184021,0.1987862736,
412.0171204,-0.0004265982716,412.0171204,0.4511905909,412.0171204,0.4748145044,412.0171204,0.4126478732,412.0171204,0.3608056307,412.0171204,0.1949809939,
411.015625,-0.0002335839235,411.015625,0.4440957606,411.015625,0.4691353142,411.015625,0.4064895511,411.015625,0.3533269465,411.015625,0.1914062202,
410.0139771,-0.0001834927534,410.0139771,0.4375739992,410.0139771,0.4635774791,410.0139771,0.4007659554,410.0139771,0.3466852605,410.0139771,0.1879070699,
409.0121765,-0.0002101949649,409.0121765,0.4302455783,409.0121765,0.4573008716,409.0121765,0.3933483362,409.0121765,0.339985162,409.0121765,0.1840560883,
408.0101318,-6.020658839E-005,408.0101318,0.4231814146,408.0101318,0.4511407316,408.0101318,0.3871030807,408.0101318,0.3333112001,408.0101318,0.1802473217,
407.0079956,3.409315832E-005,407.0079956,0.4163274765,407.0079956,0.444442451,407.0079956,0.3809144199,407.0079956,0.3260524869,407.0079956,0.1766472757,
406.0057068,0.0002439142991,406.0057068,0.4093212783,406.0057068,0.4393237531,406.0057068,0.3752608299,406.0057068,0.3197124898,406.0057068,0.1728325486,
405.0032349,-0.0002639049198,405.0032349,0.4040251672,405.0032349,0.433757633,405.0032349,0.3699296415,405.0032349,0.3129292727,405.0032349,0.1702382565,
404.0005493,0.0002463748679,404.0005493,0.3995194435,404.0005493,0.430059284,404.0005493,0.3651928902,404.0005493,0.3082917333,404.0005493,0.1672447026,
402.9977417,9.32512703E-005,402.9977417,0.3938173354,402.9977417,0.4256497324,402.9977417,0.3603416085,402.9977417,0.3023584783,402.9977417,0.1647937149,
401.9947815,-1.951758168E-005,401.9947815,0.389026016,401.9947815,0.4207684994,401.9947815,0.355818361,401.9947815,0.2984092534,401.9947815,0.1614547819,
400.9916077,-6.388187467E-005,400.9916077,0.384991914,400.9916077,0.4184010327,400.9916077,0.3529720902,400.9916077,0.2943711877,400.9916077,0.1596612334,
399.9883118,0.0002537825203,399.9883118,0.3818176687,399.9883118,0.4158854187,399.9883118,0.3500628769,399.9883118,0.2912981212,399.9883118,0.15828982,
398.9848328,0.0001124890987,398.9848328,0.3787790835,398.9848328,0.4121236503,398.9848328,0.3463104665,398.9848328,0.2872926891,398.9848328,0.1557711959,
397.9812317,-0.0002322385699,397.9812317,0.3742362261,397.9812317,0.4088616073,397.9812317,0.3427713215,397.9812317,0.2840005457,397.9812317,0.1537619382,
397.0160522,-0.000105498395,397.0160522,0.371581167,397.0160522,0.4066360295,397.0160522,0.340336293,397.0160522,0.2809028327,397.0160522,0.1521950215,
396.012085,-0.0003641663934,396.012085,0.3677307665,396.012085,0.4043351412,396.012085,0.3375836909,396.012085,0.2773339748,396.012085,0.1502595842,
395.0079956,8.566511679E-005,395.0079956,0.3658914864,395.0079956,0.4022118747,395.0079956,0.3348560035,395.0079956,0.2748977542,395.0079956,0.1488665938,
394.0037231,0.0002587296476,394.0037231,0.3631974757,394.0037231,0.4001241326,394.0037231,0.3331222832,394.0037231,0.2715509236,394.0037231,0.1474972069,
392.9992981,0.0005201533786,392.9992981,0.3599442542,392.9992981,0.3976691961,392.9992981,0.3301995099,392.9992981,0.2684666216,392.9992981,0.1461156607,
391.9946899,0.0007012212882,391.9946899,0.3567150235,391.9946899,0.3952492476,391.9946899,0.3282599747,391.9946899,0.2657338083,391.9946899,0.1441309601,
390.9899292,0.0005748416879,390.9899292,0.3542595208,390.9899292,0.3928168714,390.9899292,0.3250536025,390.9899292,0.2619878352,390.9899292,0.1422204226,
389.9850159,4.276572508E-005,389.9850159,0.3505254686,389.9850159,0.3899012506,389.9850159,0.3220295906,389.9850159,0.2587341964,389.9850159,0.1400692463,
389.0185852,-5.425359996E-005,389.0185852,0.3473759592,389.0185852,0.387476027,389.0185852,0.3198089004,389.0185852,0.2551801503,389.0185852,0.1383457929,
388.0133667,-0.0002552641672,388.0133667,0.3447366953,388.0133667,0.3844372332,388.0133667,0.3164930642,388.0133667,0.2519840896,388.0133667,0.1366330534,
387.0079956,-0.0003873401729,387.0079956,0.3413047493,387.0079956,0.3814702332,387.0079956,0.3140903413,387.0079956,0.2479810119,387.0079956,0.1343146414,
386.0024414,0.0001007080937,386.0024414,0.3390329778,386.0024414,0.3802874386,386.0024414,0.3114952147,386.0024414,0.2452562451,386.0024414,0.1328815371,
384.9967651,0.0001455812017,384.9967651,0.3361119032,384.9967651,0.3780393898,384.9967651,0.3098103702,384.9967651,0.2424561232,384.9967651,0.1314341575,
383.9909058,-0.0002321868233,383.9909058,0.3327450752,383.9909058,0.3752770424,383.9909058,0.3068332374,383.9909058,0.2387650013,383.9909058,0.1298293173,
382.9848938,3.649936843E-006,382.9848938,0.3306113482,382.9848938,0.3739002645,382.9848938,0.3049874902,382.9848938,0.236160174,382.9848938,0.1277716607,
382.017395,0.00026481651,382.017395,0.3285515308,382.017395,0.3724354804,382.017395,0.303462714,382.017395,0.234208107,382.017395,0.1267091036,
381.0110779,-0.0003105205833,381.0110779,0.3271409869,381.0110779,0.3703590631,381.0110779,0.3015166819,381.0110779,0.2313207537,381.0110779,0.1253823042,
380.0045776,-0.0004437693278,380.0045776,0.3259672225,380.0045776,0.3700895905,380.0045776,0.300468266,380.0045776,0.2299527079,380.0045776,0.1242431328,
378.9979858,0.0001956125343,378.9979858,0.3247732222,378.9979858,0.3690337539,378.9979858,0.2997429371,378.9979858,0.2284658998,378.9979858,0.1235055029,
377.9912109,0.000269142125,377.9912109,0.3229474127,377.9912109,0.3676019907,377.9912109,0.2984801233,377.9912109,0.2269684523,377.9912109,0.1228056997,
376.9842834,5.040290489E-005,376.9842834,0.3229508996,376.9842834,0.3690544963,376.9842834,0.2984068394,376.9842834,0.2253812701,376.9842834,0.1218376532,
376.0158997,0.000836248335,376.0158997,0.3230501413,376.0158997,0.3682943285,376.0158997,0.2981777489,376.0158997,0.2246497571,376.0158997,0.1217280701,
375.008667,0.0001243481092,375.008667,0.3217127323,375.008667,0.3682481945,375.008667,0.2981466353,375.008667,0.2238761932,375.008667,0.1208800301,
374.0012817,0.0003266225103,374.0012817,0.3217875659,374.0012817,0.3690644801,374.0012817,0.2983084023,374.0012817,0.2238922715,374.0012817,0.1203968003,
372.9937439,0.0002957961406,372.9937439,0.3225537539,372.9937439,0.3693028092,372.9937439,0.2990522683,372.9937439,0.222416088,372.9937439,0.1201741323,
371.9860535,0.0001102364404,371.9860535,0.3221479058,371.9860535,0.3696874082,371.9860535,0.2984263301,371.9860535,0.2226129919,371.9860535,0.120809257,
371.0169373,0.0004028689291,371.0169373,0.3232305944,371.0169373,0.3718226254,371.0169373,0.2996402681,371.0169373,0.2230625302,371.0169373,0.1193165407,
370.0089722,0.001167004579,370.0089722,0.3242377341,370.0089722,0.3724226058,370.0089722,0.3008923531,370.0089722,0.2244234979,370.0089722,0.1205941662,
369.0007935,0.0003162086359,369.0007935,0.3245620131,369.0007935,0.3733527362,369.0007935,0.3011490703,369.0007935,0.2231665105,369.0007935,0.1200521365,
367.9925232,0.0004860220361,367.9925232,0.3257169724,367.9925232,0.3747327924,367.9925232,0.3020492792,367.9925232,0.224220708,367.9925232,0.1214987934,
366.9840393,-8.696814621E-005,366.9840393,0.3256950378,366.9840393,0.3754771948,366.9840393,0.3030249476,366.9840393,0.2231372595,366.9840393,0.1204143241,
366.0142517,0.0002469964675,366.0142517,0.3281265795,366.0142517,0.3768369257,366.0142517,0.3042408228,366.0142517,0.2246339619,366.0142517,0.1211813092,
365.0055542,0.0003007178311,365.0055542,0.3280336857,365.0055542,0.378228426,365.0055542,0.3049947619,365.0055542,0.2245844603,365.0055542,0.1214723587,
363.9966431,-0.0002053824719,363.9966431,0.3292973638,363.9966431,0.378897965,363.9966431,0.3062202632,363.9966431,0.2251893133,363.9966431,0.1211674884,
362.9876099,0.0001339287555,362.9876099,0.3300825655,362.9876099,0.3809129,362.9876099,0.305794239,362.9876099,0.224960044,362.9876099,0.121648252,
362.0172424,0.0003184623783,362.0172424,0.3305492103,362.0172424,0.3814744055,362.0172424,0.3068951964,362.0172424,0.2246693075,362.0172424,0.1207319647,
361.0079041,-0.000178524715,361.0079041,0.3308651745,361.0079041,0.38216573,361.0079041,0.3076957762,361.0079041,0.2242444307,361.0079041,0.120560199,
359.9984436,-3.722242764E-005,359.9984436,0.3315858245,359.9984436,0.381975472,359.9984436,0.3075323105,359.9984436,0.224188298,359.9984436,0.1211502478,
358.9888,-0.000108500426,358.9888,0.331859678,358.9888,0.3839248717,358.9888,0.3084810078,358.9888,0.2232116908,358.9888,0.1207682639,
358.0178833,-0.0002681993356,358.0178833,0.3323331475,358.0178833,0.3837263882,358.0178833,0.3088972867,358.0178833,0.2237338275,358.0178833,0.1208973005,
357.0079651,-0.0005371121806,357.0079651,0.3316772878,357.0079651,0.3848663568,357.0079651,0.3081642091,357.0079651,0.2226037532,357.0079651,0.1197590083,
355.9979248,0.0001494136231,355.9979248,0.3314557374,355.9979248,0.3853598535,355.9979248,0.3088268638,355.9979248,0.2217774689,355.9979248,0.1195561588,
354.9877319,9.374320507E-005,354.9877319,0.3310590088,354.9877319,0.3847935498,354.9877319,0.3091921806,354.9877319,0.2207624465,354.9877319,0.1196074039,
354.0162048,-0.0001104155017,354.0162048,0.331422627,354.0162048,0.3852630854,354.0162048,0.3091813624,354.0162048,0.219896242,354.0162048,0.1185777336,
353.0057678,-3.323631245E-005,353.0057678,0.3306006789,353.0057678,0.3857254386,353.0057678,0.3075287342,353.0057678,0.2184219509,353.0057678,0.1180449799,
351.9951172,-0.0006472361856,351.9951172,0.3295149803,351.9951172,0.3848979175,351.9951172,0.3078278303,351.9951172,0.2175449729,351.9951172,0.1176050752,
350.984375,-0.0003133660066,350.984375,0.329177618,350.984375,0.3848850727,350.984375,0.3074104786,350.984375,0.2160242349,350.984375,0.1169338524,
350.0123291,-1.299456198E-005,350.0123291,0.3281158507,350.0123291,0.3852479756,350.0123291,0.3065744042,350.0123291,0.2148914784,350.0123291,0.1158917695,
349.0012512,-0.0005085167941,349.0012512,0.3269253373,349.0012512,0.3843305707,349.0012512,0.3057115078,349.0012512,0.2133252323,349.0012512,0.1150461659,
347.9900513,0.0003026606282,347.9900513,0.3266396224,347.9900513,0.3849907517,347.9900513,0.3052447736,347.9900513,0.2125200331,347.9900513,0.1152885333,
347.0176392,0.0002258620225,347.0176392,0.3262340724,347.0176392,0.3839419186,347.0176392,0.3058334589,347.0176392,0.2111990005,347.0176392,0.1144098714,
346.0061646,-0.0001331887615,346.0061646,0.3255758584,346.0061646,0.3842332959,346.0061646,0.3051670194,346.0061646,0.2095852643,346.0061646,0.1139176711,
344.9945374,1.799112033E-005,344.9945374,0.3256932795,344.9945374,0.3847782612,344.9945374,0.3046416342,344.9945374,0.2078436017,344.9945374,0.1126721948,
343.9827881,0.0001157515871,343.9827881,0.3244963288,343.9827881,0.3844456375,343.9827881,0.304831177,343.9827881,0.2071953714,343.9827881,0.1123907417,
343.0098267,0.0002438883967,343.0098267,0.3241663873,343.0098267,0.3852182627,343.0098267,0.3041182458,343.0098267,0.2060437799,343.0098267,0.1114064604,
341.9977722,-0.0002278402826,341.9977722,0.3237177432,341.9977722,0.3852579892,341.9977722,0.3037375808,341.9977722,0.2045949697,341.9977722,0.1109484881,
340.9856262,0.0004760189913,340.9856262,0.3237761259,340.9856262,0.3859234154,340.9856262,0.3047480583,340.9856262,0.2032917142,340.9856262,0.1105027869,
340.0122375,0.0001521067024,340.0122375,0.3234630227,340.0122375,0.3854062259,340.0122375,0.3042320907,340.0122375,0.203988418,340.0122375,0.110821411,
338.9998169,-0.0002063139254,338.9998169,0.3232804835,338.9998169,0.3859743774,338.9998169,0.3032913506,338.9998169,0.2024126798,338.9998169,0.1096304208,
337.9872437,-0.0004220984993,337.9872437,0.322834909,337.9872437,0.38612324,337.9872437,0.303937465,337.9872437,0.2011583149,337.9872437,0.1094432697,
337.0134583,-0.0002040370309,337.0134583,0.3235539496,337.0134583,0.3884062767,337.0134583,0.3037868738,337.0134583,0.2004385293,337.0134583,0.1089361683,
336.0006104,0.00014747151,336.0006104,0.3235804439,336.0006104,0.3878839612,336.0006104,0.3042730689,336.0006104,0.1996937543,336.0006104,0.1090441942,
334.9876099,0.0001729268115,334.9876099,0.3234047592,334.9876099,0.3890794814,334.9876099,0.3050065935,334.9876099,0.1992944926,334.9876099,0.1087125093,
334.0134583,0.0001625684235,334.0134583,0.3239018619,334.0134583,0.3884776235,334.0134583,0.3053199351,334.0134583,0.1986777037,334.0134583,0.1083717123,
333.0002136,-0.0003682529205,333.0002136,0.3237161934,333.0002136,0.3899746835,333.0002136,0.3049730062,333.0002136,0.1976578683,333.0002136,0.107701093,
331.9868164,8.235107089E-005,331.9868164,0.323621124,331.9868164,0.3921575248,331.9868164,0.3058920801,331.9868164,0.1976635903,331.9868164,0.1071290001,
331.0122681,0.0007355510606,331.0122681,0.3258515596,331.0122681,0.3938138783,331.0122681,0.3065550327,331.0122681,0.1974516511,331.0122681,0.1073496491,
329.9985962,-0.0003937023866,329.9985962,0.3245685101,329.9985962,0.3933379948,329.9985962,0.3065671027,329.9985962,0.1959751248,329.9985962,0.1073227078,
328.9848022,-0.0002038817911,328.9848022,0.3257254362,328.9848022,0.3956080079,328.9848022,0.3067633212,328.9848022,0.1957667768,328.9848022,0.1069541872,
328.0098877,-4.918306331E-006,328.0098877,0.3268068731,328.0098877,0.3969731331,328.0098877,0.3080043197,328.0098877,0.1955156773,328.0098877,0.1062007174,
326.9958801,4.297283158E-005,326.9958801,0.327244252,326.9958801,0.3980068862,326.9958801,0.3082394004,326.9958801,0.1956006736,326.9958801,0.1061424762,
325.9816589,-0.0005609489162,325.9816589,0.3275398016,325.9816589,0.399061352,325.9816589,0.3090887964,325.9816589,0.1949185878,325.9816589,0.1066940799,
325.0063477,-0.0001712795638,325.0063477,0.3292729259,325.0063477,0.4008496404,325.0063477,0.3117120862,325.0063477,0.1957762837,325.0063477,0.107070066,
323.9918823,-0.0008274586871,323.9918823,0.3299824297,323.9918823,0.4029043615,323.9918823,0.3119523227,323.9918823,0.1959768236,323.9918823,0.1066692621,
323.0163574,-0.0004045645182,323.0163574,0.3311692178,323.0163574,0.4040516615,323.0163574,0.3131394982,323.0163574,0.1952362806,323.0163574,0.1059758887,
322.0016479,0.0002678211313,322.0016479,0.3328767419,322.0016479,0.4073958695,322.0016479,0.3147705197,322.0016479,0.1971166432,322.0016479,0.1074310616,
320.9867859,5.752242942E-005,320.9867859,0.3341171741,320.9867859,0.4097756147,320.9867859,0.316865772,320.9867859,0.1966548413,320.9867859,0.1074935868,
320.0108643,-0.0004975021002,320.0108643,0.3361666799,320.0108643,0.4120920599,320.0108643,0.3187174201,320.0108643,0.1978333741,320.0108643,0.1079293713,
318.9957581,2.57831889E-005,318.9957581,0.3379820585,318.9957581,0.4147627056,318.9957581,0.319370836,318.9957581,0.1979016364,318.9957581,0.1084081903,
317.9805298,-0.0002831519523,317.9805298,0.3383956552,317.9805298,0.4164433479,317.9805298,0.3213287294,317.9805298,0.1988224387,317.9805298,0.1090584695,
317.0042419,-0.0003578037431,317.0042419,0.3422329724,317.0042419,0.419636488,317.0042419,0.3233639598,317.0042419,0.2005030513,317.0042419,0.1094246507,
315.9887695,0.0001487144618,315.9887695,0.3443119526,315.9887695,0.4230687916,315.9887695,0.326497525,315.9887695,0.2025346458,315.9887695,0.1112302169,
315.012207,-0.00134749827,315.012207,0.3472017944,315.012207,0.4263114929,315.012207,0.3295040429,315.012207,0.2030863911,315.012207,0.1115698218,
313.99646,-0.0001107260541,313.99646,0.3495622277,313.99646,0.4303945601,313.99646,0.3319633007,313.99646,0.205881387,313.99646,0.1123697832,
312.9806213,0.0005676359287,312.9806213,0.3551366925,312.9806213,0.4339951575,312.9806213,0.3363724053,312.9806213,0.2080767155,312.9806213,0.1144199446,
312.0037231,-0.0001331887615,312.0037231,0.3585539162,312.0037231,0.4392516911,312.0037231,0.3398887813,312.0037231,0.2086924016,312.0037231,0.1145151258,
310.9876099,0.0001409978722,310.9876099,0.3629839718,310.9876099,0.4452597499,310.9876099,0.3439931273,310.9876099,0.2123026997,310.9876099,0.1167891175,
310.010437,-0.0004033748701,310.010437,0.3668676019,310.010437,0.4482152164,310.010437,0.3480953276,310.010437,0.2154786736,310.010437,0.1176527888,
308.9940796,7.051910507E-005,308.9940796,0.3708101213,308.9940796,0.4557541013,308.9940796,0.3529585004,308.9940796,0.2192418277,308.9940796,0.1199546084,
308.0166931,0.0001918056078,308.0166931,0.3776245713,308.0166931,0.461275965,308.0166931,0.3575865328,308.0166931,0.2233098596,308.0166931,0.1222267821,
307.0000916,0.0002569165663,307.0000916,0.3867376149,307.0000916,0.4712334275,307.0000916,0.3628977537,307.0000916,0.2295302302,307.0000916,0.1241255403,
305.9833374,-0.0001228374313,305.9833374,0.3944723308,305.9833374,0.4801354408,305.9833374,0.3733602464,305.9833374,0.2357021868,305.9833374,0.1302111,
305.0056152,0.001478583785,305.0056152,0.4060873091,305.0056152,0.4954632819,305.0056152,0.3830749094,305.0056152,0.2451565862,305.0056152,0.1360158324,
303.9886475,0.001826986205,303.9886475,0.4202017486,303.9886475,0.5049561262,303.9886475,0.3911493421,303.9886475,0.254277885,303.9886475,0.1382135004,
303.0106506,0.0002180663578,303.0106506,0.4322182238,303.0106506,0.5197006464,303.0106506,0.4069773853,303.0106506,0.269197613,303.0106506,0.1468456686,
301.9934387,0.000801754999,301.9934387,0.4489510059,301.9934387,0.5365982652,301.9934387,0.4224023521,301.9934387,0.2837223113,301.9934387,0.1553351134,
301.0151978,-0.002495626453,301.0151978,0.4629156291,301.0151978,0.5516183972,301.0151978,0.4330172539,301.0151978,0.2916422486,301.0151978,0.1607398987,
299.9977722,-0.001270641806,299.9977722,0.4860300124,299.9977722,0.5761449933,299.9977722,0.4500185847,299.9977722,0.3185978234,299.9977722,0.1727348268,
299.0193176,0.004672849085,299.0193176,0.5127944946,299.0193176,0.6044239402,299.0193176,0.4721964002,299.0193176,0.3443840444,299.0193176,0.1885009855,
298.0016174,0.00764135085,298.0016174,0.5318374038,298.0016174,0.6267018318,298.0016174,0.5000131726,298.0016174,0.3617340028,298.0016174,0.2000885308,
296.9837952,-0.00591072673,296.9837952,0.5449760556,296.9837952,0.6316960454,296.9837952,0.510976851,296.9837952,0.36777246,296.9837952,0.1980134398,
296.0050049,-0.003285362618,296.0050049,0.578142643,296.0050049,0.6679947376,296.0050049,0.5370447636,296.0050049,0.3885433078,296.0050049,0.2143136263,
294.9869385,0.008935020305,294.9869385,0.6091321707,294.9869385,0.7038629055,294.9869385,0.5645648241,294.9869385,0.4411388934,294.9869385,0.2604077458,
294.0079346,0.003151452169,294.0079346,0.6713889837,294.0079346,0.7706026435,294.0079346,0.6177139878,294.0079346,0.4791332483,294.0079346,0.2612949014,
292.9896545,-0.007985571399,292.9896545,0.7158168554,292.9896545,0.817817986,292.9896545,0.6386569142,292.9896545,0.4915981889,292.9896545,0.2999141812,
292.010376,0.0005042665871,292.010376,0.7574108243,292.010376,0.8519240022,292.010376,0.6865317225,292.010376,0.5585989952,292.010376,0.3003666699,
290.9918518,0.001491830917,290.9918518,0.7944222093,290.9918518,0.8880266547,290.9918518,0.7260729074,290.9918518,0.5913545489,290.9918518,0.3212225139,
290.0123901,0.003163107671,290.0123901,0.8259217143,290.0123901,0.9202443361,290.0123901,0.7482648492,290.0123901,0.6126007438,290.0123901,0.3353406787,
288.9936218,0.00518207578,288.9936218,0.8577240705,288.9936218,0.9578909874,288.9936218,0.7641779184,288.9936218,0.6355237365,288.9936218,0.3510265648,
288.013916,0.008954495192,288.013916,0.885779798,288.013916,0.9912739396,288.013916,0.7928504944,288.013916,0.647936523,288.013916,0.3522934914,
286.9949341,0.01437231712,286.9949341,0.9025508761,286.9949341,0.9999958277,286.9949341,0.8277518749,286.9949341,0.6943551302,286.9949341,0.3846636713,
286.0150146,-0.03638202697,286.0150146,0.9045508504,286.0150146,1.032487154,286.0150146,0.8193398714,286.0150146,0.7167006731,286.0150146,0.3521705568,
284.9957886,-0.01004422735,284.9957886,0.9541711211,284.9957886,1.057618737,284.9957886,0.8195425272,284.9957886,0.7289366126,284.9957886,0.3885523379,
284.015625,-0.01897341758,284.015625,0.9328143001,284.015625,1.031519413,284.015625,0.8065370917,284.015625,0.722736299,284.015625,0.3995364308,
282.9962158,-0.04124813154,282.9962158,0.8593879938,282.9962158,0.8800294399,282.9962158,0.8295076489,282.9962158,0.8132488728,282.9962158,0.4090637863,
282.0158691,-0.02311491407,282.0158691,0.6060066223,282.0158691,0.9426984191,282.0158691,0.676915884,282.0158691,0.6552577615,282.0158691,0.4424451888,
280.9961548,0.07547836006,280.9961548,0.7070915699,280.9961548,0.5085839629,280.9961548,0.9387806058,280.9961548,0.6653411388,280.9961548,0.4719140232,
280.0155945,0.250064522,280.0155945,1.064976692,280.0155945,10,280.0155945,0.5232886672,280.0155945,0.3770988584,280.0155945,0.9225640893,
278.995697,-0.1499651521,278.995697,0.407247901,278.995697,0.4019356966,278.995697,0.7277143002,278.995697,0.4708605409,278.995697,0.07315001637,
278.0149231,0.4766148329,278.0149231,-0.631967485,278.0149231,-0.4993704557,278.0149231,-0.263770014,278.0149231,-0.3593123257,278.0149231,-0.591450572,
276.9947815,-0.2247124016,276.9947815,-0.1550644785,276.9947815,10,276.9947815,-0.03611503541,276.9947815,10,276.9947815,0.1371918172,
276.0137939,-1.015365601,276.0137939,10,276.0137939,-1.168681145,276.0137939,-0.7870597243,276.0137939,-1.22008574,276.0137939,-0.9816778898,
274.9934387,0.190117389,274.9934387,-0.005584917963,274.9934387,0.227052927,274.9934387,0.2054395229,274.9934387,0.4505915344,274.9934387,-0.2051257491,
274.0122375,-0.015529586,274.0122375,10,274.0122375,10,274.0122375,10,274.0122375,-0.05792799592,274.0122375,0.006141462363,
272.9916687,0.06978265196,272.9916687,0.02620150335,272.9916687,0.4928145409,272.9916687,0.1127714217,272.9916687,10,272.9916687,-0.2090694904,
272.0102539,-0.1014253274,272.0102539,0.03436584026,272.0102539,10,272.0102539,-0.001672426239,272.0102539,-0.2267899215,272.0102539,-0.133478418,
270.9894409,-0.5381467938,270.9894409,-0.4096388519,270.9894409,0.0005151773221,270.9894409,-0.2292656749,270.9894409,0.2924055755,270.9894409,-0.4226568043,
270.0078125,0.365634799,270.0078125,-0.2614667714,270.0078125,0.2979855835,270.0078125,10,270.0078125,-0.09217788279,270.0078125,0.3712914586,
268.9868164,0.4978129268,268.9868164,0.1554289609,268.9868164,-0.3421452045,268.9868164,-0.4090803564,268.9868164,0.003735678969,268.9868164,0.004489019513,
268.0049744,-0.7237683535,268.0049744,-0.4958249927,268.0049744,-0.4508190155,268.0049744,0.05856145546,268.0049744,-0.1464967877,268.0049744,-0.5066688657,
266.9837646,0.2086979747,266.9837646,0.8793231845,266.9837646,10,266.9837646,0.1995050758,266.9837646,0.5314912796,266.9837646,0.5487371087,
266.001709,10,266.001709,-0.0531908609,266.001709,10,266.001709,10,266.001709,0.4235707223,266.001709,10,
265.0195618,-0.7565428019,265.0195618,10,265.0195618,-1.051144361,265.0195618,10,265.0195618,10,265.0195618,-0.7628375292,
263.9980469,10,263.9980469,-0.7822809219,263.9980469,10,263.9980469,10,263.9980469,10,263.9980469,10,
263.0157166,0.2425904721,263.0157166,-0.3056702316,263.0157166,0.2640773356,263.0157166,0.387470603,263.0157166,-0.1668007672,263.0157166,0.3874288499,
261.9939575,0.5410801172,261.9939575,0.6697326303,261.9939575,0.1859035343,261.9939575,0.6468446851,261.9939575,0.1465449929,261.9939575,-0.1682380438,
261.0113831,0.11033272,261.0113831,0.5816501379,261.0113831,0.1689538211,261.0113831,0.18819049,261.0113831,0.2342597395,261.0113831,0.3929705322,
259.9894409,-0.06558535993,259.9894409,0.2306460887,259.9894409,0.08139401674,259.9894409,0.2344395667,259.9894409,0.1052854434,259.9894409,0.08471415937,
259.0067139,0.6948270798,259.0067139,0.7649194598,259.0067139,0.2689819038,259.0067139,0.3626267314,259.0067139,0.06716168672,259.0067139,10,
257.9845276,0.2134825587,257.9845276,10,257.9845276,0.6833061576,257.9845276,1.029012084,257.9845276,0.3854286373,257.9845276,0.7283843756,
257.0015869,-0.1054218486,257.0015869,10,257.0015869,-0.4276789725,257.0015869,10,257.0015869,-0.2572222054,257.0015869,10,
256.0185242,10,256.0185242,3.359588861,256.0185242,10,256.0185242,10,256.0185242,3.654792309,256.0185242,3.777734756,
254.9960938,0.5912718773,254.9960938,0.2187065631,254.9960938,0.3563799858,254.9960938,10,254.9960938,0.0191873908,254.9960938,0.3465205133,
254.0128326,0.3608532548,254.0128326,0.3027037978,254.0128326,10,254.0128326,0.52514714,254.0128326,0.4622467756,254.0128326,10,
252.9901428,-0.451885134,252.9901428,-0.8250241876,252.9901428,0.005015706178,252.9901428,-0.2738860548,252.9901428,-0.3794730902,252.9901428,-0.8041642308,
252.0067139,-0.2571190894,252.0067139,0.2191311568,252.0067139,-0.3113842309,252.0067139,10,252.0067139,10,252.0067139,-0.5503770113,
250.9838104,10,250.9838104,0.6746233106,250.9838104,10,250.9838104,0.3422491252,250.9838104,10,250.9838104,0.3190194368,
250.0001678,-0.5695191026,250.0001678,10,250.0001678,-0.3358475566,250.0001678,-0.2221988738,250.0001678,-0.2644677758,250.0001678,-0.4942100048,
249.0164642,-0.0371465683,249.0164642,0.2450996488,249.0164642,-0.2572569847,249.0164642,10,249.0164642,-0.1543047577,249.0164642,10,
247.9933014,10,247.9933014,-0.1856558472,247.9933014,10,247.9933014,0.1019833758,247.9933014,0.0812029466,247.9933014,0.4549514055,
247.0093842,0.6782160997,247.0093842,0.00463239802,247.0093842,-0.03379062191,247.0093842,-0.1779135019,247.0093842,-0.2045444995,247.0093842,0.6776514649,
245.9859924,0.1183169335,245.9859924,-0.1289233267,245.9859924,0.5654832721,245.9859924,10,245.9859924,0.6290686131,245.9859924,0.3920615613,
245.0018921,10,245.0018921,10,245.0018921,0.2370611876,245.0018921,0.2781459093,245.0018921,-0.539324522,245.0018921,10,
244.0176697,-0.006267727353,244.0176697,0.7047684789,244.0176697,0.2441061735,244.0176697,0.1097757816,244.0176697,10,244.0176697,0.3287446797,
242.9940338,-0.05491146445,242.9940338,0.13288109,242.9940338,0.1143441871,242.9940338,0.1084292904,242.9940338,-0.02420424297,242.9940338,-0.07022172213,
242.0096436,-0.169239074,242.0096436,-0.04788822681,242.0096436,0.1100947335,242.0096436,-0.01303646341,242.0096436,0.4309534132,242.0096436,0.01204628684,
240.9857635,0.03979942948,240.9857635,0.04300590232,240.9857635,0.7987270355,240.9857635,0.1592764705,240.9857635,0.2980762124,240.9857635,10,
240.0011749,0.7506248951,240.0011749,1.055155039,240.0011749,0.5146861672,240.0011749,0.1444640905,240.0011749,0.4189356863,240.0011749,-0.1062860638,
239.0165253,-0.3718604743,239.0165253,0.2192849815,239.0165253,0.05000097305,239.0165253,0.7071848512,239.0165253,0.02755232342,239.0165253,0.03332819045,
237.9924011,-0.167159915,237.9924011,0.310784936,237.9924011,0.6876094341,237.9924011,0.1146339253,237.9924011,0.204253912,237.9924011,-0.1597193331,
237.0075378,0.06368855387,237.0075378,10,237.0075378,-0.3342346847,237.0075378,0.07111110538,237.0075378,-0.01678046398,237.0075378,-0.09872164577,
235.9832001,0.1291067749,235.9832001,0.9065794945,235.9832001,10,235.9832001,0.4580143392,235.9832001,10,235.9832001,0.0925636068,
234.9981842,-0.4196425676,234.9981842,10,234.9981842,-0.5427556634,234.9981842,-0.3455628455,234.9981842,-0.2251838893,234.9981842,-0.4686632752,
234.013031,0.08663854003,234.013031,10,234.013031,0.8123847246,234.013031,0.2495975792,234.013031,-0.4070520401,234.013031,0.3103962839,
232.9884338,10,232.9884338,10,232.9884338,10,232.9884338,10,232.9884338,10,232.9884338,-0.8236555457,
232.0031281,3.378466129,232.0031281,3.251605749,232.0031281,3.443405151,232.0031281,3.88054204,232.0031281,3.897778273,232.0031281,10,
231.017746,0.1458917707,231.017746,-0.350638032,231.017746,-0.1896715015,231.017746,10,231.017746,10,231.017746,-0.09137991816,
229.9928284,0.4865979254,229.9928284,0.02647019178,229.9928284,10,229.9928284,0.4365743399,229.9928284,10,229.9928284,0.4154588282,
229.0072784,10,229.0072784,10,229.0072784,-0.2924241126,229.0072784,10,229.0072784,0.01592879929,229.0072784,0.0358527787,
227.982193,0.2606024146,227.982193,-0.101534918,227.982193,-0.05364884064,227.982193,-0.0640360117,227.982193,0.1845233589,227.982193,0.2977636456,
226.9964294,0.1182697937,226.9964294,10,226.9964294,0.06743645668,226.9964294,0.1653479636,226.9964294,0.1017003506,226.9964294,0.09453487396,
226.0106049,0.18121548,226.0106049,0.2992063761,226.0106049,0.5562343001,226.0106049,0.1512567699,226.0106049,-0.1208228171,226.0106049,0.1523210108,
224.9852905,0.1736613065,224.9852905,10,224.9852905,-0.0187173225,224.9852905,-0.02993131615,224.9852905,-0.2175231576,224.9852905,-0.01331455912,
223.9992676,0.2961961329,223.9992676,-0.1225590184,223.9992676,-0.1812470406,223.9992676,-0.0889890492,223.9992676,0.04288388044,223.9992676,10,
223.0131836,0.668201983,223.0131836,0.4697915316,223.0131836,0.1008767113,223.0131836,0.4395605326,223.0131836,-0.1254502982,223.0131836,0.03953118622,
221.9875793,-0.1141647026,221.9875793,0.08522734791,221.9875793,0.3664185405,221.9875793,0.3237697482,221.9875793,0.2311596125,221.9875793,0.1767066121,
221.0013275,0.4097887576,221.0013275,-0.4045856297,221.0013275,0.1841175109,221.0013275,0.1476373374,221.0013275,-0.05176387355,221.0013275,0.01938504726,
220.0149689,-0.2938068509,220.0149689,10,220.0149689,-0.4205633402,220.0149689,-0.3100723326,220.0149689,0.1142938659,220.0149689,-0.2616781294,
218.98909,-0.2739360929,218.98909,-0.09714283794,218.98909,0.3706098795,218.98909,10,218.98909,-0.09099844098,218.98909,0.2830046415,
218.0025787,-0.3936077356,218.0025787,-0.2256774306,218.0025787,-0.3529964983,218.0025787,-0.3288421631,218.0025787,0.03408522159,218.0025787,-0.7051293254,
217.015976,0.5196708441,217.015976,0.5802323222,217.015976,-0.09266085178,217.015976,0.8777255416,217.015976,0.1293154657,217.015976,10,
215.9898376,0.6893470287,215.9898376,0.1432391852,215.9898376,0.6149954796,215.9898376,10,215.9898376,0.2907695174,215.9898376,0.6372271776,
215.003067,0.3065867722,215.003067,10,215.003067,0.8216269612,215.003067,0.6774497032,215.003067,0.3441416919,215.003067,0.5557409525,
214.0162354,0.4777009189,214.0162354,10,214.0162354,-0.00191140105,214.0162354,0.1346438229,214.0162354,10,214.0162354,-0.007710705046,
212.9898224,10,212.9898224,0.06530313939,212.9898224,0.2803813517,212.9898224,-0.4180339575,212.9898224,0.4989762604,212.9898224,0.377975136,
212.0028229,-0.003219794482,212.0028229,0.09666865319,212.0028229,0.9772905111,212.0028229,10,212.0028229,0.9504792094,212.0028229,0.3352222741,
211.0157318,-0.2992977798,211.0157318,-0.05208617449,211.0157318,-0.2653863728,211.0157318,-0.1698506027,211.0157318,-0.1948705316,211.0157318,-0.1052918285,
209.98909,-0.07001361251,209.98909,10,209.98909,-0.07077718526,209.98909,-0.111064814,209.98909,0.4892205596,209.98909,0.3406110108,
209.0018311,-0.4170999527,209.0018311,-0.3460379541,209.0018311,0.07957202196,209.0018311,0.003714896273,209.0018311,10,209.0018311,-0.6020153165,
208.0145111,0.4689725041,208.0145111,0.2195684016,208.0145111,0.2151985466,208.0145111,0.7587316632,208.0145111,1.026307702,208.0145111,0.0708688572,
206.9876099,0.4593801796,206.9876099,0.5050296783,206.9876099,0.1390249431,206.9876099,0.336594969,206.9876099,0.9895833135,206.9876099,0.005030868575,
206.0001221,-0.1543581039,206.0001221,0.0007079626084,206.0001221,-0.02541562356,206.0001221,10,206.0001221,0.2887432575,206.0001221,10,
205.0125427,0.6032256484,205.0125427,0.05589463562,205.0125427,0.0870879516,205.0125427,0.3510776758,205.0125427,0.6245865822,205.0125427,0.5813883543,
203.9854279,-0.1856340021,203.9854279,0.2295880765,203.9854279,-0.1735907346,203.9854279,0.2846972942,203.9854279,0.1728796065,203.9854279,0.3879027963,
202.9976807,0.185121119,202.9976807,-0.07114998251,202.9976807,-0.006202046759,202.9976807,0.2809145153,202.9976807,0.1525817364,202.9976807,-0.04733940586,
202.0098877,0.3850528598,202.0098877,0.007235583384,202.0098877,0.1974145323,202.0098877,0.4612281919,202.0098877,1.238735676,202.0098877,0.4116230607,
200.9824982,-0.461268425,200.9824982,0.003430017037,200.9824982,0.1994338185,200.9824982,0.3795529902,200.9824982,-0.03317864984,200.9824982,-0.1850847155,
199.9945374,-0.7538607717,199.9945374,-0.649881959,199.9945374,-0.6111447215,199.9945374,-0.1579631716,199.9945374,-0.7962624431,199.9945374,-0.6244537234,

blank,
blank
Collection Time: 22/04/2022 14:19:07
Operator Name  :
Scan Version 5.0.0.999
Parameter List :
Instrument  Cary 60
Instrument Version  2.00
Start (nm)  800.0
Stop (nm)  200.0
X Mode  Nanometers
Y Mode  Abs
UV-Vis Scan Rate (nm/min)  4800.000
UV-Vis Data Interval (nm)  1.00
UV-Vis Ave. Time (sec)  0.0125
Beam Mode  Dual Beam
Baseline Correction  On
Baseline Type  Baseline correction
Baseline File Name
Baseline Std Ref File Name
Cycle Mode  Off
Method Log     :
Method Name    :
Date/Time stamp: 22/04/2022 14:18:21
Method Modifications:
Common Interval nm Changed: 22/04/2022 14:18:47, Old:     5.00, New:     1.00
Baseline Correction Changed: 22/04/2022 14:18:47, Old:0, New:1
Storage Changed: 22/04/2022 14:18:47, Old:1, New:0
End Method Modifications
<Current Wavelength> , 253.0

bm3-wt-heme-10in1000-tube40,
bm3-wt-heme-10in1000-tube40
Collection Time: 22/04/2022 14:19:48
Operator Name  :
Scan Version 5.0.0.999
Parameter List :
Instrument  Cary 60
Instrument Version  2.00
Start (nm)  800.0
Stop (nm)  200.0
X Mode  Nanometers
Y Mode  Abs
UV-Vis Scan Rate (nm/min)  4800.000
UV-Vis Data Interval (nm)  1.00
UV-Vis Ave. Time (sec)  0.0125
Beam Mode  Dual Beam
Baseline Correction  On
Baseline Type  Baseline correction
Baseline File Name
Baseline Std Ref File Name
Cycle Mode  Off
Method Log     :
Method Name    :
Date/Time stamp: 22/04/2022 14:18:21
Method Modifications:
Common Interval nm Changed: 22/04/2022 14:18:47, Old:     5.00, New:     1.00
Baseline Correction Changed: 22/04/2022 14:18:47, Old:0, New:1
Storage Changed: 22/04/2022 14:18:47, Old:1, New:0
End Method Modifications
<Current Wavelength> , 208.0

bm3-wt-heme-10in1000-tube42,
bm3-wt-heme-10in1000-tube42
Collection Time: 22/04/2022 14:20:14
Operator Name  :
Scan Version 5.0.0.999
Parameter List :
Instrument  Cary 60
Instrument Version  2.00
Start (nm)  800.0
Stop (nm)  200.0
X Mode  Nanometers
Y Mode  Abs
UV-Vis Scan Rate (nm/min)  4800.000
UV-Vis Data Interval (nm)  1.00
UV-Vis Ave. Time (sec)  0.0125
Beam Mode  Dual Beam
Baseline Correction  On
Baseline Type  Baseline correction
Baseline File Name
Baseline Std Ref File Name
Cycle Mode  Off
Method Log     :
Method Name    :
Date/Time stamp: 22/04/2022 14:18:21
Method Modifications:
Common Interval nm Changed: 22/04/2022 14:18:47, Old:     5.00, New:     1.00
Baseline Correction Changed: 22/04/2022 14:18:47, Old:0, New:1
Storage Changed: 22/04/2022 14:18:47, Old:1, New:0
End Method Modifications
<Current Wavelength> , 231.0

bm3-wt-heme-10in1000-tube43,
bm3-wt-heme-10in1000-tube43
Collection Time: 22/04/2022 14:20:33
Operator Name  :
Scan Version 5.0.0.999
Parameter List :
Instrument  Cary 60
Instrument Version  2.00
Start (nm)  800.0
Stop (nm)  200.0
X Mode  Nanometers
Y Mode  Abs
UV-Vis Scan Rate (nm/min)  4800.000
UV-Vis Data Interval (nm)  1.00
UV-Vis Ave. Time (sec)  0.0125
Beam Mode  Dual Beam
Baseline Correction  On
Baseline Type  Baseline correction
Baseline File Name
Baseline Std Ref File Name
Cycle Mode  Off
Method Log     :
Method Name    :
Date/Time stamp: 22/04/2022 14:18:21
Method Modifications:
Common Interval nm Changed: 22/04/2022 14:18:47, Old:     5.00, New:     1.00
Baseline Correction Changed: 22/04/2022 14:18:47, Old:0, New:1
Storage Changed: 22/04/2022 14:18:47, Old:1, New:0
End Method Modifications
<Current Wavelength> , 261.0

bm3-wt-heme-10in1000-spin-n-pool,
bm3-wt-heme-10in1000-spin-n-pool
Collection Time: 22/04/2022 14:32:19
Operator Name  :
Scan Version 5.0.0.999
Parameter List :
Instrument  Cary 60
Instrument Version  2.00
Start (nm)  800.0
Stop (nm)  200.0
X Mode  Nanometers
Y Mode  Abs
UV-Vis Scan Rate (nm/min)  4800.000
UV-Vis Data Interval (nm)  1.00
UV-Vis Ave. Time (sec)  0.0125
Beam Mode  Dual Beam
Baseline Correction  On
Baseline Type  Baseline correction
Baseline File Name
Baseline Std Ref File Name
Cycle Mode  Off
Method Log     :
Method Name    :
Date/Time stamp: 22/04/2022 14:18:21
Method Modifications:
Common Interval nm Changed: 22/04/2022 14:18:47, Old:     5.00, New:     1.00
Baseline Correction Changed: 22/04/2022 14:18:47, Old:0, New:1
Storage Changed: 22/04/2022 14:18:47, Old:1, New:0
End Method Modifications
<Current Wavelength> , 261.0

bm3-wt-heme-post-dil,
bm3-wt-heme-post-dil
Collection Time: 22/04/2022 14:53:11
Operator Name  :
Scan Version 5.0.0.999
Parameter List :
Instrument  Cary 60
Instrument Version  2.00
Start (nm)  800.0
Stop (nm)  200.0
X Mode  Nanometers
Y Mode  Abs
UV-Vis Scan Rate (nm/min)  4800.000
UV-Vis Data Interval (nm)  1.00
UV-Vis Ave. Time (sec)  0.0125
Beam Mode  Dual Beam
Baseline Correction  On
Baseline Type  Baseline correction
Baseline File Name
Baseline Std Ref File Name
Cycle Mode  Off
Method Log     :
Method Name    :
Date/Time stamp: 22/04/2022 14:18:21
Method Modifications:
Common Interval nm Changed: 22/04/2022 14:18:47, Old:     5.00, New:     1.00
Baseline Correction Changed: 22/04/2022 14:18:47, Old:0, New:1
Storage Changed: 22/04/2022 14:18:47, Old:1, New:0
End Method Modifications
<Current Wavelength> , 304.0

